,MLII,V1,symbol
0,-0.345,-0.16,
1,-0.345,-0.16,
2,-0.345,-0.16,
3,-0.345,-0.16,
4,-0.345,-0.16,
5,-0.345,-0.16,
6,-0.345,-0.16,
7,-0.345,-0.16,+
8,-0.33,-0.15,
9,-0.32,-0.145,
10,-0.32,-0.17,
11,-0.325,-0.18,
12,-0.33,-0.17,
13,-0.325,-0.15,
14,-0.315,-0.16,
15,-0.305,-0.17,
16,-0.3,-0.185,
17,-0.315,-0.195,
18,-0.32,-0.185,
19,-0.315,-0.185,
20,-0.3,-0.175,
21,-0.29,-0.2,
22,-0.29,-0.19,
23,-0.295,-0.205,
24,-0.29,-0.195,
25,-0.295,-0.175,
26,-0.285,-0.175,
27,-0.255,-0.19,
28,-0.23,-0.2,
29,-0.2,-0.215,
30,-0.195,-0.21,
31,-0.16,-0.21,
32,-0.16,-0.19,
33,-0.165,-0.22,
34,-0.2,-0.225,
35,-0.2,-0.245,
36,-0.21,-0.235,
37,-0.21,-0.215,
38,-0.205,-0.225,
39,-0.21,-0.235,
40,-0.21,-0.24,
41,-0.22,-0.245,
42,-0.25,-0.225,
43,-0.25,-0.215,
44,-0.25,-0.205,
45,-0.26,-0.205,
46,-0.265,-0.205,
47,-0.275,-0.195,
48,-0.305,-0.19,
49,-0.32,-0.175,
50,-0.33,-0.18,
51,-0.32,-0.18,
52,-0.32,-0.2,
53,-0.315,-0.2,
54,-0.34,-0.185,
55,-0.35,-0.18,
56,-0.335,-0.175,
57,-0.32,-0.2,
58,-0.31,-0.2,
59,-0.335,-0.205,
60,-0.345,-0.205,
61,-0.35,-0.2,
62,-0.35,-0.195,
63,-0.355,-0.215,
64,-0.35,-0.215,
65,-0.35,-0.22,
66,-0.37,-0.215,
67,-0.36,-0.22,
68,-0.345,-0.22,
69,-0.325,-0.22,
70,-0.325,-0.22,
71,-0.335,-0.23,
72,-0.37,-0.245,
73,-0.4,-0.235,
74,-0.4,-0.23,
75,-0.395,-0.23,
76,-0.35,-0.24,
77,-0.21,-0.24,
78,-0.01,-0.24,
79,0.245,-0.245,
80,0.53,-0.25,
81,0.85,-0.285,
82,1.085,-0.315,
83,1.065,-0.375,N
84,0.815,-0.4,
85,0.48,-0.41,
86,0.21,-0.365,
87,-0.01,-0.295,
88,-0.145,-0.23,
89,-0.185,-0.2,
90,-0.24,-0.2,
91,-0.285,-0.215,
92,-0.285,-0.205,
93,-0.285,-0.195,
94,-0.29,-0.18,
95,-0.3,-0.19,
96,-0.335,-0.2,
97,-0.36,-0.2,
98,-0.36,-0.185,
99,-0.385,-0.18,
100,-0.395,-0.195,
101,-0.415,-0.21,
102,-0.43,-0.23,
103,-0.435,-0.225,
104,-0.405,-0.2,
105,-0.41,-0.205,
106,-0.405,-0.21,
107,-0.415,-0.225,
108,-0.44,-0.225,
109,-0.43,-0.21,
110,-0.415,-0.19,
111,-0.42,-0.19,
112,-0.415,-0.225,
113,-0.42,-0.23,
114,-0.43,-0.245,
115,-0.44,-0.235,
116,-0.425,-0.225,
117,-0.415,-0.225,
118,-0.425,-0.24,
119,-0.43,-0.25,
120,-0.425,-0.25,
121,-0.415,-0.23,
122,-0.42,-0.22,
123,-0.415,-0.23,
124,-0.42,-0.235,
125,-0.42,-0.24,
126,-0.435,-0.225,
127,-0.415,-0.21,
128,-0.415,-0.2,
129,-0.4,-0.185,
130,-0.395,-0.19,
131,-0.41,-0.21,
132,-0.425,-0.195,
133,-0.415,-0.18,
134,-0.405,-0.175,
135,-0.395,-0.18,
136,-0.4,-0.195,
137,-0.41,-0.2,
138,-0.42,-0.185,
139,-0.41,-0.195,
140,-0.395,-0.195,
141,-0.38,-0.21,
142,-0.39,-0.215,
143,-0.4,-0.22,
144,-0.415,-0.21,
145,-0.42,-0.205,
146,-0.385,-0.21,
147,-0.375,-0.22,
148,-0.38,-0.205,
149,-0.375,-0.215,
150,-0.365,-0.21,
151,-0.35,-0.21,
152,-0.35,-0.215,
153,-0.35,-0.22,
154,-0.34,-0.235,
155,-0.35,-0.245,
156,-0.35,-0.25,
157,-0.325,-0.255,
158,-0.32,-0.24,
159,-0.31,-0.25,
160,-0.31,-0.245,
161,-0.31,-0.24,
162,-0.305,-0.24,
163,-0.285,-0.25,
164,-0.27,-0.24,
165,-0.265,-0.245,
166,-0.265,-0.23,
167,-0.255,-0.235,
168,-0.24,-0.23,
169,-0.22,-0.225,
170,-0.21,-0.21,
171,-0.205,-0.205,
172,-0.19,-0.205,
173,-0.175,-0.2,
174,-0.175,-0.205,
175,-0.165,-0.21,
176,-0.155,-0.2,
177,-0.145,-0.2,
178,-0.13,-0.2,
179,-0.125,-0.215,
180,-0.135,-0.225,
181,-0.125,-0.225,
182,-0.11,-0.215,
183,-0.09,-0.215,
184,-0.105,-0.225,
185,-0.12,-0.24,
186,-0.12,-0.26,
187,-0.12,-0.255,
188,-0.11,-0.235,
189,-0.11,-0.23,
190,-0.13,-0.23,
191,-0.16,-0.245,
192,-0.165,-0.255,
193,-0.17,-0.24,
194,-0.17,-0.225,
195,-0.18,-0.215,
196,-0.205,-0.235,
197,-0.225,-0.26,
198,-0.235,-0.265,
199,-0.245,-0.25,
200,-0.25,-0.24,
201,-0.255,-0.235,
202,-0.265,-0.235,
203,-0.275,-0.25,
204,-0.285,-0.26,
205,-0.295,-0.245,
206,-0.29,-0.215,
207,-0.305,-0.215,
208,-0.315,-0.225,
209,-0.33,-0.25,
210,-0.34,-0.225,
211,-0.325,-0.22,
212,-0.325,-0.19,
213,-0.315,-0.185,
214,-0.31,-0.185,
215,-0.335,-0.2,
216,-0.355,-0.205,
217,-0.355,-0.19,
218,-0.365,-0.175,
219,-0.345,-0.175,
220,-0.345,-0.19,
221,-0.33,-0.205,
222,-0.35,-0.205,
223,-0.355,-0.185,
224,-0.34,-0.18,
225,-0.345,-0.195,
226,-0.345,-0.21,
227,-0.35,-0.225,
228,-0.35,-0.225,
229,-0.35,-0.2,
230,-0.345,-0.19,
231,-0.33,-0.205,
232,-0.34,-0.215,
233,-0.35,-0.22,
234,-0.36,-0.21,
235,-0.35,-0.19,
236,-0.34,-0.19,
237,-0.33,-0.215,
238,-0.32,-0.235,
239,-0.325,-0.235,
240,-0.32,-0.235,
241,-0.325,-0.205,
242,-0.32,-0.205,
243,-0.315,-0.225,
244,-0.325,-0.23,
245,-0.345,-0.24,
246,-0.35,-0.235,
247,-0.33,-0.215,
248,-0.32,-0.2,
249,-0.305,-0.22,
250,-0.305,-0.21,
251,-0.3,-0.22,
252,-0.32,-0.21,
253,-0.325,-0.195,
254,-0.325,-0.185,
255,-0.305,-0.185,
256,-0.29,-0.185,
257,-0.305,-0.2,
258,-0.32,-0.19,
259,-0.325,-0.175,
260,-0.325,-0.17,
261,-0.31,-0.185,
262,-0.31,-0.18,
263,-0.31,-0.185,
264,-0.325,-0.19,
265,-0.31,-0.175,
266,-0.31,-0.175,
267,-0.315,-0.185,
268,-0.31,-0.195,
269,-0.32,-0.21,
270,-0.33,-0.2,
271,-0.32,-0.2,
272,-0.315,-0.195,
273,-0.315,-0.215,
274,-0.315,-0.215,
275,-0.34,-0.21,
276,-0.34,-0.21,
277,-0.325,-0.2,
278,-0.31,-0.2,
279,-0.305,-0.2,
280,-0.32,-0.205,
281,-0.32,-0.22,
282,-0.33,-0.225,
283,-0.33,-0.24,
284,-0.335,-0.24,
285,-0.32,-0.235,
286,-0.32,-0.24,
287,-0.33,-0.245,
288,-0.34,-0.245,
289,-0.345,-0.235,
290,-0.335,-0.225,
291,-0.32,-0.235,
292,-0.33,-0.235,
293,-0.325,-0.225,
294,-0.32,-0.22,
295,-0.325,-0.21,
296,-0.325,-0.205,
297,-0.315,-0.21,
298,-0.315,-0.185,
299,-0.32,-0.195,
300,-0.335,-0.195,
301,-0.335,-0.19,
302,-0.325,-0.18,
303,-0.32,-0.18,
304,-0.33,-0.165,
305,-0.34,-0.18,
306,-0.35,-0.19,
307,-0.33,-0.19,
308,-0.335,-0.185,
309,-0.325,-0.2,
310,-0.31,-0.205,
311,-0.34,-0.205,
312,-0.355,-0.22,
313,-0.335,-0.21,
314,-0.32,-0.215,
315,-0.305,-0.205,
316,-0.31,-0.21,
317,-0.315,-0.2,
318,-0.32,-0.21,
319,-0.35,-0.225,
320,-0.315,-0.2,
321,-0.32,-0.195,
322,-0.32,-0.205,
323,-0.32,-0.215,
324,-0.32,-0.22,
325,-0.32,-0.25,
326,-0.31,-0.22,
327,-0.31,-0.225,
328,-0.315,-0.235,
329,-0.315,-0.225,
330,-0.31,-0.23,
331,-0.295,-0.225,
332,-0.28,-0.225,
333,-0.28,-0.235,
334,-0.29,-0.23,
335,-0.295,-0.225,
336,-0.295,-0.235,
337,-0.285,-0.22,
338,-0.275,-0.215,
339,-0.24,-0.21,
340,-0.22,-0.205,
341,-0.215,-0.205,
342,-0.215,-0.185,
343,-0.175,-0.18,
344,-0.145,-0.18,
345,-0.14,-0.185,
346,-0.15,-0.175,
347,-0.185,-0.185,
348,-0.21,-0.19,
349,-0.215,-0.185,
350,-0.215,-0.19,
351,-0.205,-0.19,
352,-0.21,-0.2,
353,-0.215,-0.2,
354,-0.235,-0.215,
355,-0.255,-0.21,
356,-0.25,-0.205,
357,-0.25,-0.215,
358,-0.24,-0.21,
359,-0.255,-0.225,
360,-0.27,-0.215,
361,-0.275,-0.22,
362,-0.3,-0.22,
363,-0.3,-0.22,
364,-0.325,-0.22,
365,-0.32,-0.225,
366,-0.325,-0.225,
367,-0.315,-0.23,
368,-0.305,-0.24,
369,-0.305,-0.245,
370,-0.315,-0.23,
371,-0.32,-0.24,
372,-0.355,-0.26,
373,-0.35,-0.25,
374,-0.35,-0.25,
375,-0.335,-0.255,
376,-0.32,-0.24,
377,-0.325,-0.255,
378,-0.34,-0.245,
379,-0.35,-0.245,
380,-0.325,-0.225,
381,-0.305,-0.22,
382,-0.31,-0.195,
383,-0.325,-0.22,
384,-0.36,-0.215,
385,-0.355,-0.22,
386,-0.36,-0.19,
387,-0.355,-0.175,
388,-0.36,-0.165,
389,-0.37,-0.19,
390,-0.27,-0.185,
391,-0.085,-0.185,
392,0.135,-0.185,
393,0.385,-0.185,
394,0.69,-0.215,
395,0.945,-0.265,
396,1.02,-0.32,N
397,0.89,-0.37,
398,0.605,-0.39,
399,0.345,-0.355,
400,0.115,-0.31,
401,-0.055,-0.265,
402,-0.14,-0.23,
403,-0.185,-0.21,
404,-0.235,-0.195,
405,-0.24,-0.195,
406,-0.25,-0.2,
407,-0.27,-0.215,
408,-0.3,-0.225,
409,-0.315,-0.225,
410,-0.34,-0.21,
411,-0.37,-0.215,
412,-0.38,-0.225,
413,-0.405,-0.25,
414,-0.395,-0.25,
415,-0.385,-0.235,
416,-0.375,-0.205,
417,-0.365,-0.215,
418,-0.375,-0.23,
419,-0.395,-0.245,
420,-0.415,-0.245,
421,-0.42,-0.23,
422,-0.405,-0.2,
423,-0.39,-0.205,
424,-0.41,-0.205,
425,-0.4,-0.215,
426,-0.41,-0.195,
427,-0.39,-0.17,
428,-0.395,-0.175,
429,-0.39,-0.175,
430,-0.395,-0.185,
431,-0.415,-0.19,
432,-0.425,-0.18,
433,-0.42,-0.175,
434,-0.395,-0.16,
435,-0.39,-0.18,
436,-0.4,-0.19,
437,-0.405,-0.2,
438,-0.405,-0.195,
439,-0.395,-0.2,
440,-0.385,-0.2,
441,-0.385,-0.19,
442,-0.385,-0.205,
443,-0.4,-0.205,
444,-0.405,-0.2,
445,-0.405,-0.2,
446,-0.4,-0.19,
447,-0.39,-0.205,
448,-0.385,-0.205,
449,-0.4,-0.22,
450,-0.415,-0.22,
451,-0.405,-0.215,
452,-0.39,-0.22,
453,-0.375,-0.23,
454,-0.37,-0.235,
455,-0.385,-0.23,
456,-0.4,-0.23,
457,-0.385,-0.23,
458,-0.37,-0.225,
459,-0.36,-0.225,
460,-0.365,-0.235,
461,-0.365,-0.225,
462,-0.375,-0.225,
463,-0.38,-0.23,
464,-0.355,-0.225,
465,-0.34,-0.215,
466,-0.34,-0.215,
467,-0.335,-0.205,
468,-0.345,-0.195,
469,-0.335,-0.195,
470,-0.32,-0.185,
471,-0.315,-0.185,
472,-0.33,-0.18,
473,-0.315,-0.2,
474,-0.33,-0.19,
475,-0.315,-0.18,
476,-0.3,-0.17,
477,-0.275,-0.175,
478,-0.255,-0.17,
479,-0.24,-0.185,
480,-0.255,-0.195,
481,-0.245,-0.205,
482,-0.235,-0.185,
483,-0.22,-0.205,
484,-0.21,-0.195,
485,-0.21,-0.22,
486,-0.215,-0.215,
487,-0.205,-0.215,
488,-0.185,-0.21,
489,-0.17,-0.215,
490,-0.15,-0.21,
491,-0.14,-0.215,
492,-0.145,-0.23,
493,-0.14,-0.23,
494,-0.115,-0.225,
495,-0.12,-0.23,
496,-0.125,-0.245,
497,-0.115,-0.255,
498,-0.13,-0.27,
499,-0.12,-0.255,
500,-0.12,-0.25,
501,-0.125,-0.25,
502,-0.115,-0.24,
503,-0.13,-0.25,
504,-0.125,-0.26,
505,-0.125,-0.255,
506,-0.13,-0.24,
507,-0.14,-0.225,
508,-0.16,-0.215,
509,-0.17,-0.225,
510,-0.19,-0.22,
511,-0.195,-0.205,
512,-0.19,-0.195,
513,-0.18,-0.185,
514,-0.195,-0.185,
515,-0.225,-0.185,
516,-0.235,-0.19,
517,-0.24,-0.18,
518,-0.235,-0.165,
519,-0.235,-0.165,
520,-0.24,-0.16,
521,-0.27,-0.18,
522,-0.275,-0.185,
523,-0.28,-0.195,
524,-0.275,-0.18,
525,-0.275,-0.175,
526,-0.28,-0.19,
527,-0.3,-0.195,
528,-0.31,-0.195,
529,-0.31,-0.195,
530,-0.305,-0.185,
531,-0.295,-0.165,
532,-0.295,-0.18,
533,-0.31,-0.2,
534,-0.32,-0.2,
535,-0.305,-0.2,
536,-0.3,-0.19,
537,-0.295,-0.185,
538,-0.315,-0.19,
539,-0.315,-0.22,
540,-0.32,-0.23,
541,-0.305,-0.21,
542,-0.305,-0.21,
543,-0.295,-0.2,
544,-0.31,-0.205,
545,-0.305,-0.225,
546,-0.3,-0.23,
547,-0.305,-0.22,
548,-0.3,-0.2,
549,-0.31,-0.18,
550,-0.295,-0.185,
551,-0.295,-0.205,
552,-0.295,-0.205,
553,-0.29,-0.185,
554,-0.285,-0.16,
555,-0.28,-0.16,
556,-0.275,-0.17,
557,-0.275,-0.17,
558,-0.285,-0.17,
559,-0.29,-0.15,
560,-0.275,-0.145,
561,-0.28,-0.15,
562,-0.27,-0.17,
563,-0.285,-0.175,
564,-0.295,-0.175,
565,-0.295,-0.16,
566,-0.275,-0.15,
567,-0.27,-0.165,
568,-0.265,-0.17,
569,-0.265,-0.195,
570,-0.27,-0.19,
571,-0.265,-0.185,
572,-0.27,-0.165,
573,-0.26,-0.16,
574,-0.26,-0.175,
575,-0.265,-0.185,
576,-0.285,-0.185,
577,-0.285,-0.175,
578,-0.275,-0.175,
579,-0.26,-0.185,
580,-0.265,-0.205,
581,-0.28,-0.22,
582,-0.285,-0.215,
583,-0.28,-0.2,
584,-0.265,-0.195,
585,-0.265,-0.205,
586,-0.265,-0.21,
587,-0.265,-0.215,
588,-0.265,-0.21,
589,-0.27,-0.195,
590,-0.27,-0.19,
591,-0.255,-0.195,
592,-0.265,-0.2,
593,-0.28,-0.2,
594,-0.29,-0.185,
595,-0.28,-0.165,
596,-0.27,-0.15,
597,-0.27,-0.155,
598,-0.265,-0.16,
599,-0.265,-0.175,
600,-0.295,-0.165,
601,-0.28,-0.155,
602,-0.285,-0.14,
603,-0.265,-0.155,
604,-0.265,-0.155,
605,-0.28,-0.165,
606,-0.285,-0.16,
607,-0.285,-0.15,
608,-0.275,-0.15,
609,-0.275,-0.17,
610,-0.275,-0.18,
611,-0.275,-0.2,
612,-0.285,-0.18,
613,-0.285,-0.17,
614,-0.27,-0.16,
615,-0.265,-0.18,
616,-0.27,-0.19,
617,-0.275,-0.185,
618,-0.285,-0.19,
619,-0.28,-0.175,
620,-0.265,-0.16,
621,-0.265,-0.18,
622,-0.275,-0.185,
623,-0.27,-0.19,
624,-0.275,-0.2,
625,-0.275,-0.205,
626,-0.275,-0.19,
627,-0.26,-0.19,
628,-0.265,-0.21,
629,-0.275,-0.225,
630,-0.285,-0.225,
631,-0.28,-0.21,
632,-0.28,-0.19,
633,-0.26,-0.2,
634,-0.27,-0.205,
635,-0.275,-0.215,
636,-0.28,-0.22,
637,-0.28,-0.2,
638,-0.27,-0.175,
639,-0.255,-0.165,
640,-0.225,-0.165,
641,-0.235,-0.175,
642,-0.245,-0.175,
643,-0.24,-0.15,
644,-0.22,-0.14,
645,-0.21,-0.145,
646,-0.215,-0.15,
647,-0.22,-0.15,
648,-0.225,-0.16,
649,-0.235,-0.14,
650,-0.23,-0.12,
651,-0.22,-0.14,
652,-0.19,-0.155,
653,-0.18,-0.175,
654,-0.185,-0.185,
655,-0.15,-0.155,
656,-0.115,-0.145,
657,-0.105,-0.155,
658,-0.1,-0.175,
659,-0.125,-0.195,
660,-0.15,-0.19,
661,-0.155,-0.18,
662,-0.15,-0.165,
663,-0.16,-0.175,
664,-0.175,-0.18,
665,-0.185,-0.205,
666,-0.2,-0.2,
667,-0.19,-0.175,
668,-0.19,-0.185,
669,-0.18,-0.2,
670,-0.195,-0.215,
671,-0.21,-0.235,
672,-0.225,-0.23,
673,-0.22,-0.21,
674,-0.225,-0.205,
675,-0.24,-0.205,
676,-0.24,-0.22,
677,-0.26,-0.22,
678,-0.29,-0.23,
679,-0.285,-0.205,
680,-0.28,-0.21,
681,-0.265,-0.21,
682,-0.275,-0.2,
683,-0.295,-0.21,
684,-0.305,-0.2,
685,-0.295,-0.17,
686,-0.29,-0.16,
687,-0.275,-0.16,
688,-0.285,-0.17,
689,-0.295,-0.175,
690,-0.305,-0.19,
691,-0.32,-0.155,
692,-0.305,-0.15,
693,-0.295,-0.155,
694,-0.3,-0.16,
695,-0.305,-0.185,
696,-0.305,-0.18,
697,-0.295,-0.17,
698,-0.285,-0.15,
699,-0.29,-0.155,
700,-0.31,-0.18,
701,-0.34,-0.18,
702,-0.37,-0.185,
703,-0.365,-0.16,
704,-0.29,-0.16,
705,-0.15,-0.16,
706,0.065,-0.165,
707,0.295,-0.18,
708,0.54,-0.19,
709,0.84,-0.2,
710,1.085,-0.215,
711,1.165,-0.265,N
712,1.04,-0.335,
713,0.765,-0.365,
714,0.48,-0.35,
715,0.22,-0.31,
716,0.015,-0.24,
717,-0.08,-0.2,
718,-0.115,-0.19,
719,-0.185,-0.21,
720,-0.235,-0.22,
721,-0.245,-0.2,
722,-0.235,-0.19,
723,-0.24,-0.18,
724,-0.26,-0.18,
725,-0.3,-0.19,
726,-0.345,-0.185,
727,-0.35,-0.16,
728,-0.365,-0.15,
729,-0.35,-0.155,
730,-0.365,-0.15,
731,-0.375,-0.155,
732,-0.39,-0.145,
733,-0.375,-0.13,
734,-0.37,-0.13,
735,-0.37,-0.135,
736,-0.375,-0.14,
737,-0.385,-0.15,
738,-0.39,-0.15,
739,-0.395,-0.135,
740,-0.4,-0.13,
741,-0.39,-0.145,
742,-0.39,-0.16,
743,-0.4,-0.155,
744,-0.4,-0.155,
745,-0.39,-0.165,
746,-0.385,-0.15,
747,-0.385,-0.16,
748,-0.385,-0.155,
749,-0.395,-0.16,
750,-0.41,-0.155,
751,-0.4,-0.16,
752,-0.39,-0.15,
753,-0.385,-0.16,
754,-0.395,-0.16,
755,-0.395,-0.17,
756,-0.405,-0.185,
757,-0.405,-0.18,
758,-0.39,-0.18,
759,-0.38,-0.18,
760,-0.38,-0.19,
761,-0.395,-0.19,
762,-0.4,-0.185,
763,-0.41,-0.185,
764,-0.39,-0.175,
765,-0.385,-0.17,
766,-0.375,-0.17,
767,-0.385,-0.18,
768,-0.395,-0.165,
769,-0.395,-0.155,
770,-0.39,-0.155,
771,-0.38,-0.15,
772,-0.385,-0.135,
773,-0.39,-0.13,
774,-0.395,-0.135,
775,-0.385,-0.125,
776,-0.375,-0.125,
777,-0.365,-0.115,
778,-0.365,-0.12,
779,-0.37,-0.13,
780,-0.37,-0.13,
781,-0.365,-0.13,
782,-0.35,-0.12,
783,-0.34,-0.13,
784,-0.345,-0.125,
785,-0.345,-0.145,
786,-0.36,-0.155,
787,-0.35,-0.155,
788,-0.32,-0.145,
789,-0.305,-0.13,
790,-0.29,-0.14,
791,-0.3,-0.15,
792,-0.29,-0.16,
793,-0.295,-0.155,
794,-0.28,-0.145,
795,-0.255,-0.13,
796,-0.235,-0.15,
797,-0.245,-0.175,
798,-0.245,-0.185,
799,-0.235,-0.185,
800,-0.225,-0.17,
801,-0.205,-0.16,
802,-0.18,-0.165,
803,-0.18,-0.18,
804,-0.19,-0.185,
805,-0.17,-0.185,
806,-0.155,-0.155,
807,-0.145,-0.16,
808,-0.14,-0.17,
809,-0.15,-0.18,
810,-0.14,-0.19,
811,-0.145,-0.165,
812,-0.135,-0.155,
813,-0.11,-0.14,
814,-0.13,-0.13,
815,-0.125,-0.15,
816,-0.13,-0.15,
817,-0.135,-0.145,
818,-0.12,-0.14,
819,-0.12,-0.14,
820,-0.12,-0.125,
821,-0.145,-0.145,
822,-0.165,-0.15,
823,-0.17,-0.14,
824,-0.175,-0.12,
825,-0.175,-0.12,
826,-0.19,-0.13,
827,-0.215,-0.15,
828,-0.225,-0.155,
829,-0.235,-0.15,
830,-0.25,-0.135,
831,-0.245,-0.135,
832,-0.265,-0.15,
833,-0.27,-0.155,
834,-0.295,-0.15,
835,-0.315,-0.13,
836,-0.305,-0.12,
837,-0.295,-0.12,
838,-0.3,-0.125,
839,-0.315,-0.145,
840,-0.325,-0.155,
841,-0.325,-0.15,
842,-0.325,-0.135,
843,-0.325,-0.145,
844,-0.33,-0.16,
845,-0.34,-0.165,
846,-0.355,-0.17,
847,-0.36,-0.16,
848,-0.35,-0.145,
849,-0.335,-0.135,
850,-0.355,-0.155,
851,-0.36,-0.165,
852,-0.365,-0.16,
853,-0.365,-0.145,
854,-0.345,-0.125,
855,-0.35,-0.12,
856,-0.36,-0.11,
857,-0.36,-0.125,
858,-0.355,-0.115,
859,-0.35,-0.115,
860,-0.345,-0.095,
861,-0.335,-0.095,
862,-0.345,-0.1,
863,-0.365,-0.115,
864,-0.375,-0.115,
865,-0.365,-0.09,
866,-0.35,-0.085,
867,-0.355,-0.09,
868,-0.345,-0.105,
869,-0.35,-0.125,
870,-0.35,-0.125,
871,-0.355,-0.105,
872,-0.345,-0.11,
873,-0.33,-0.12,
874,-0.325,-0.125,
875,-0.33,-0.14,
876,-0.35,-0.145,
877,-0.35,-0.125,
878,-0.35,-0.11,
879,-0.34,-0.12,
880,-0.34,-0.12,
881,-0.35,-0.125,
882,-0.355,-0.145,
883,-0.345,-0.135,
884,-0.335,-0.13,
885,-0.33,-0.145,
886,-0.34,-0.14,
887,-0.34,-0.175,
888,-0.35,-0.18,
889,-0.34,-0.15,
890,-0.325,-0.135,
891,-0.325,-0.135,
892,-0.32,-0.145,
893,-0.34,-0.165,
894,-0.355,-0.165,
895,-0.36,-0.16,
896,-0.355,-0.135,
897,-0.345,-0.12,
898,-0.33,-0.135,
899,-0.335,-0.14,
900,-0.345,-0.14,
901,-0.345,-0.125,
902,-0.35,-0.12,
903,-0.33,-0.1,
904,-0.33,-0.095,
905,-0.345,-0.1,
906,-0.345,-0.115,
907,-0.35,-0.105,
908,-0.34,-0.085,
909,-0.345,-0.07,
910,-0.345,-0.08,
911,-0.345,-0.115,
912,-0.35,-0.125,
913,-0.345,-0.115,
914,-0.345,-0.095,
915,-0.335,-0.105,
916,-0.355,-0.11,
917,-0.36,-0.11,
918,-0.365,-0.14,
919,-0.365,-0.14,
920,-0.36,-0.12,
921,-0.35,-0.105,
922,-0.355,-0.11,
923,-0.355,-0.115,
924,-0.355,-0.125,
925,-0.35,-0.13,
926,-0.345,-0.105,
927,-0.34,-0.115,
928,-0.355,-0.115,
929,-0.37,-0.135,
930,-0.38,-0.145,
931,-0.38,-0.14,
932,-0.375,-0.13,
933,-0.365,-0.13,
934,-0.36,-0.14,
935,-0.355,-0.155,
936,-0.355,-0.165,
937,-0.365,-0.16,
938,-0.365,-0.135,
939,-0.345,-0.115,
940,-0.34,-0.12,
941,-0.36,-0.145,
942,-0.385,-0.15,
943,-0.38,-0.15,
944,-0.36,-0.11,
945,-0.345,-0.105,
946,-0.345,-0.105,
947,-0.365,-0.105,
948,-0.375,-0.11,
949,-0.385,-0.11,
950,-0.355,-0.09,
951,-0.35,-0.07,
952,-0.35,-0.08,
953,-0.36,-0.1,
954,-0.37,-0.105,
955,-0.37,-0.1,
956,-0.355,-0.075,
957,-0.35,-0.075,
958,-0.35,-0.095,
959,-0.365,-0.105,
960,-0.365,-0.115,
961,-0.36,-0.11,
962,-0.335,-0.105,
963,-0.325,-0.09,
964,-0.33,-0.105,
965,-0.325,-0.105,
966,-0.33,-0.11,
967,-0.315,-0.115,
968,-0.305,-0.095,
969,-0.31,-0.085,
970,-0.32,-0.1,
971,-0.325,-0.125,
972,-0.32,-0.13,
973,-0.31,-0.13,
974,-0.28,-0.105,
975,-0.265,-0.12,
976,-0.245,-0.125,
977,-0.24,-0.145,
978,-0.23,-0.155,
979,-0.23,-0.145,
980,-0.225,-0.115,
981,-0.22,-0.115,
982,-0.235,-0.125,
983,-0.25,-0.14,
984,-0.265,-0.165,
985,-0.275,-0.15,
986,-0.255,-0.13,
987,-0.26,-0.11,
988,-0.255,-0.11,
989,-0.27,-0.12,
990,-0.3,-0.11,
991,-0.315,-0.1,
992,-0.315,-0.095,
993,-0.32,-0.085,
994,-0.325,-0.08,
995,-0.335,-0.09,
996,-0.355,-0.1,
997,-0.365,-0.095,
998,-0.365,-0.085,
999,-0.38,-0.09,
1000,-0.39,-0.1,
1001,-0.4,-0.105,
1002,-0.395,-0.1,
1003,-0.38,-0.1,
1004,-0.375,-0.095,
1005,-0.385,-0.1,
1006,-0.415,-0.11,
1007,-0.42,-0.115,
1008,-0.42,-0.115,
1009,-0.425,-0.105,
1010,-0.415,-0.095,
1011,-0.405,-0.095,
1012,-0.41,-0.1,
1013,-0.425,-0.115,
1014,-0.43,-0.115,
1015,-0.41,-0.11,
1016,-0.395,-0.105,
1017,-0.4,-0.115,
1018,-0.42,-0.14,
1019,-0.425,-0.14,
1020,-0.435,-0.135,
1021,-0.45,-0.125,
1022,-0.455,-0.11,
1023,-0.465,-0.105,
1024,-0.45,-0.125,
1025,-0.41,-0.135,
1026,-0.265,-0.135,
1027,-0.025,-0.105,
1028,0.205,-0.1,
1029,0.46,-0.11,
1030,0.715,-0.135,
1031,0.975,-0.17,
1032,1.095,-0.19,N
1033,1.01,-0.205,
1034,0.755,-0.21,
1035,0.46,-0.215,
1036,0.19,-0.21,
1037,-0.05,-0.18,
1038,-0.185,-0.135,
1039,-0.225,-0.085,
1040,-0.25,-0.06,
1041,-0.28,-0.06,
1042,-0.325,-0.075,
1043,-0.35,-0.09,
1044,-0.355,-0.09,
1045,-0.35,-0.075,
1046,-0.365,-0.075,
1047,-0.385,-0.075,
1048,-0.425,-0.08,
1049,-0.445,-0.09,
1050,-0.445,-0.09,
1051,-0.455,-0.095,
1052,-0.45,-0.09,
1053,-0.455,-0.09,
1054,-0.48,-0.09,
1055,-0.495,-0.1,
1056,-0.485,-0.1,
1057,-0.475,-0.085,
1058,-0.47,-0.085,
1059,-0.47,-0.08,
1060,-0.48,-0.095,
1061,-0.505,-0.115,
1062,-0.5,-0.13,
1063,-0.49,-0.13,
1064,-0.48,-0.13,
1065,-0.495,-0.13,
1066,-0.5,-0.13,
1067,-0.49,-0.14,
1068,-0.49,-0.135,
1069,-0.475,-0.135,
1070,-0.465,-0.13,
1071,-0.475,-0.135,
1072,-0.475,-0.14,
1073,-0.485,-0.135,
1074,-0.49,-0.135,
1075,-0.48,-0.12,
1076,-0.475,-0.115,
1077,-0.465,-0.105,
1078,-0.475,-0.095,
1079,-0.49,-0.09,
1080,-0.475,-0.085,
1081,-0.465,-0.075,
1082,-0.475,-0.075,
1083,-0.485,-0.07,
1084,-0.485,-0.075,
1085,-0.485,-0.07,
1086,-0.475,-0.075,
1087,-0.47,-0.065,
1088,-0.465,-0.07,
1089,-0.475,-0.065,
1090,-0.475,-0.075,
1091,-0.48,-0.085,
1092,-0.47,-0.085,
1093,-0.475,-0.085,
1094,-0.46,-0.105,
1095,-0.46,-0.105,
1096,-0.465,-0.105,
1097,-0.485,-0.11,
1098,-0.475,-0.1,
1099,-0.47,-0.1,
1100,-0.455,-0.1,
1101,-0.465,-0.095,
1102,-0.455,-0.1,
1103,-0.46,-0.1,
1104,-0.46,-0.1,
1105,-0.455,-0.095,
1106,-0.435,-0.105,
1107,-0.435,-0.115,
1108,-0.43,-0.135,
1109,-0.435,-0.14,
1110,-0.435,-0.14,
1111,-0.415,-0.13,
1112,-0.41,-0.13,
1113,-0.4,-0.13,
1114,-0.395,-0.13,
1115,-0.41,-0.13,
1116,-0.4,-0.14,
1117,-0.38,-0.125,
1118,-0.355,-0.13,
1119,-0.355,-0.12,
1120,-0.375,-0.12,
1121,-0.355,-0.125,
1122,-0.345,-0.115,
1123,-0.32,-0.105,
1124,-0.305,-0.1,
1125,-0.29,-0.09,
1126,-0.29,-0.09,
1127,-0.28,-0.105,
1128,-0.275,-0.095,
1129,-0.255,-0.095,
1130,-0.235,-0.09,
1131,-0.235,-0.09,
1132,-0.235,-0.095,
1133,-0.245,-0.09,
1134,-0.24,-0.095,
1135,-0.21,-0.1,
1136,-0.195,-0.115,
1137,-0.18,-0.115,
1138,-0.19,-0.12,
1139,-0.195,-0.14,
1140,-0.19,-0.135,
1141,-0.185,-0.12,
1142,-0.175,-0.12,
1143,-0.17,-0.12,
1144,-0.18,-0.12,
1145,-0.185,-0.135,
1146,-0.175,-0.135,
1147,-0.19,-0.135,
1148,-0.19,-0.13,
1149,-0.195,-0.125,
1150,-0.21,-0.14,
1151,-0.235,-0.165,
1152,-0.26,-0.155,
1153,-0.255,-0.16,
1154,-0.255,-0.145,
1155,-0.27,-0.155,
1156,-0.295,-0.16,
1157,-0.32,-0.165,
1158,-0.335,-0.16,
1159,-0.345,-0.14,
1160,-0.325,-0.13,
1161,-0.33,-0.125,
1162,-0.355,-0.14,
1163,-0.37,-0.145,
1164,-0.37,-0.135,
1165,-0.375,-0.125,
1166,-0.365,-0.1,
1167,-0.375,-0.085,
1168,-0.38,-0.1,
1169,-0.39,-0.1,
1170,-0.41,-0.1,
1171,-0.405,-0.085,
1172,-0.405,-0.085,
1173,-0.395,-0.09,
1174,-0.41,-0.09,
1175,-0.42,-0.09,
1176,-0.42,-0.09,
1177,-0.41,-0.085,
1178,-0.39,-0.09,
1179,-0.395,-0.095,
1180,-0.405,-0.09,
1181,-0.415,-0.105,
1182,-0.42,-0.105,
1183,-0.415,-0.11,
1184,-0.41,-0.115,
1185,-0.415,-0.12,
1186,-0.42,-0.11,
1187,-0.425,-0.115,
1188,-0.425,-0.11,
1189,-0.425,-0.105,
1190,-0.4,-0.105,
1191,-0.405,-0.115,
1192,-0.415,-0.11,
1193,-0.425,-0.11,
1194,-0.42,-0.11,
1195,-0.42,-0.12,
1196,-0.42,-0.13,
1197,-0.43,-0.135,
1198,-0.43,-0.145,
1199,-0.43,-0.155,
1200,-0.43,-0.14,
1201,-0.405,-0.14,
1202,-0.405,-0.145,
1203,-0.405,-0.145,
1204,-0.415,-0.15,
1205,-0.43,-0.145,
1206,-0.42,-0.13,
1207,-0.415,-0.14,
1208,-0.41,-0.145,
1209,-0.4,-0.145,
1210,-0.415,-0.135,
1211,-0.415,-0.125,
1212,-0.415,-0.115,
1213,-0.41,-0.105,
1214,-0.39,-0.105,
1215,-0.39,-0.11,
1216,-0.4,-0.1,
1217,-0.41,-0.105,
1218,-0.415,-0.095,
1219,-0.395,-0.09,
1220,-0.385,-0.1,
1221,-0.39,-0.1,
1222,-0.405,-0.095,
1223,-0.395,-0.105,
1224,-0.4,-0.105,
1225,-0.385,-0.105,
1226,-0.38,-0.115,
1227,-0.39,-0.125,
1228,-0.4,-0.125,
1229,-0.415,-0.13,
1230,-0.41,-0.13,
1231,-0.4,-0.125,
1232,-0.4,-0.13,
1233,-0.41,-0.125,
1234,-0.42,-0.13,
1235,-0.405,-0.13,
1236,-0.41,-0.125,
1237,-0.4,-0.125,
1238,-0.4,-0.125,
1239,-0.395,-0.145,
1240,-0.4,-0.145,
1241,-0.415,-0.155,
1242,-0.42,-0.15,
1243,-0.415,-0.14,
1244,-0.41,-0.145,
1245,-0.42,-0.155,
1246,-0.42,-0.155,
1247,-0.42,-0.155,
1248,-0.43,-0.145,
1249,-0.415,-0.155,
1250,-0.395,-0.155,
1251,-0.4,-0.155,
1252,-0.405,-0.135,
1253,-0.42,-0.14,
1254,-0.435,-0.125,
1255,-0.425,-0.13,
1256,-0.42,-0.11,
1257,-0.415,-0.11,
1258,-0.405,-0.115,
1259,-0.41,-0.12,
1260,-0.43,-0.1,
1261,-0.43,-0.095,
1262,-0.395,-0.1,
1263,-0.41,-0.095,
1264,-0.42,-0.105,
1265,-0.425,-0.11,
1266,-0.415,-0.125,
1267,-0.405,-0.11,
1268,-0.41,-0.105,
1269,-0.405,-0.115,
1270,-0.415,-0.115,
1271,-0.415,-0.13,
1272,-0.415,-0.135,
1273,-0.405,-0.125,
1274,-0.385,-0.125,
1275,-0.41,-0.12,
1276,-0.42,-0.13,
1277,-0.43,-0.13,
1278,-0.42,-0.135,
1279,-0.41,-0.135,
1280,-0.4,-0.115,
1281,-0.405,-0.125,
1282,-0.42,-0.13,
1283,-0.42,-0.155,
1284,-0.43,-0.15,
1285,-0.415,-0.16,
1286,-0.4,-0.155,
1287,-0.41,-0.15,
1288,-0.405,-0.16,
1289,-0.405,-0.16,
1290,-0.415,-0.16,
1291,-0.4,-0.16,
1292,-0.41,-0.15,
1293,-0.41,-0.15,
1294,-0.42,-0.16,
1295,-0.41,-0.155,
1296,-0.405,-0.15,
1297,-0.39,-0.145,
1298,-0.375,-0.135,
1299,-0.375,-0.13,
1300,-0.375,-0.125,
1301,-0.375,-0.11,
1302,-0.375,-0.11,
1303,-0.365,-0.11,
1304,-0.345,-0.095,
1305,-0.345,-0.1,
1306,-0.35,-0.1,
1307,-0.375,-0.105,
1308,-0.37,-0.115,
1309,-0.335,-0.105,
1310,-0.29,-0.095,
1311,-0.27,-0.095,
1312,-0.25,-0.105,
1313,-0.235,-0.115,
1314,-0.225,-0.125,
1315,-0.225,-0.12,
1316,-0.225,-0.125,
1317,-0.245,-0.135,
1318,-0.245,-0.13,
1319,-0.26,-0.145,
1320,-0.27,-0.145,
1321,-0.275,-0.135,
1322,-0.27,-0.13,
1323,-0.275,-0.13,
1324,-0.29,-0.14,
1325,-0.31,-0.16,
1326,-0.315,-0.17,
1327,-0.32,-0.155,
1328,-0.32,-0.16,
1329,-0.33,-0.155,
1330,-0.355,-0.175,
1331,-0.38,-0.185,
1332,-0.39,-0.175,
1333,-0.395,-0.18,
1334,-0.385,-0.175,
1335,-0.4,-0.17,
1336,-0.4,-0.18,
1337,-0.42,-0.18,
1338,-0.435,-0.18,
1339,-0.425,-0.175,
1340,-0.41,-0.17,
1341,-0.42,-0.15,
1342,-0.42,-0.155,
1343,-0.43,-0.155,
1344,-0.435,-0.15,
1345,-0.43,-0.14,
1346,-0.415,-0.13,
1347,-0.425,-0.135,
1348,-0.435,-0.13,
1349,-0.44,-0.14,
1350,-0.425,-0.13,
1351,-0.43,-0.125,
1352,-0.42,-0.12,
1353,-0.41,-0.12,
1354,-0.42,-0.12,
1355,-0.43,-0.14,
1356,-0.455,-0.135,
1357,-0.46,-0.14,
1358,-0.47,-0.14,
1359,-0.49,-0.14,
1360,-0.475,-0.145,
1361,-0.415,-0.145,
1362,-0.27,-0.145,
1363,-0.045,-0.14,
1364,0.18,-0.14,
1365,0.43,-0.135,
1366,0.72,-0.155,
1367,0.98,-0.18,
1368,1.1,-0.21,N
1369,1.04,-0.25,
1370,0.79,-0.29,
1371,0.48,-0.3,
1372,0.175,-0.29,
1373,-0.075,-0.26,
1374,-0.23,-0.23,
1375,-0.28,-0.18,
1376,-0.305,-0.17,
1377,-0.355,-0.18,
1378,-0.38,-0.19,
1379,-0.395,-0.18,
1380,-0.395,-0.18,
1381,-0.395,-0.17,
1382,-0.4,-0.18,
1383,-0.43,-0.19,
1384,-0.455,-0.18,
1385,-0.47,-0.175,
1386,-0.485,-0.175,
1387,-0.485,-0.165,
1388,-0.485,-0.165,
1389,-0.505,-0.16,
1390,-0.51,-0.15,
1391,-0.505,-0.145,
1392,-0.515,-0.125,
1393,-0.5,-0.13,
1394,-0.49,-0.13,
1395,-0.49,-0.135,
1396,-0.495,-0.135,
1397,-0.51,-0.13,
1398,-0.525,-0.13,
1399,-0.51,-0.115,
1400,-0.49,-0.14,
1401,-0.49,-0.145,
1402,-0.485,-0.15,
1403,-0.49,-0.14,
1404,-0.505,-0.145,
1405,-0.5,-0.15,
1406,-0.485,-0.14,
1407,-0.49,-0.145,
1408,-0.49,-0.15,
1409,-0.495,-0.165,
1410,-0.485,-0.16,
1411,-0.485,-0.145,
1412,-0.485,-0.16,
1413,-0.485,-0.16,
1414,-0.49,-0.175,
1415,-0.49,-0.16,
1416,-0.485,-0.15,
1417,-0.47,-0.155,
1418,-0.47,-0.175,
1419,-0.48,-0.18,
1420,-0.475,-0.19,
1421,-0.49,-0.19,
1422,-0.49,-0.17,
1423,-0.47,-0.16,
1424,-0.455,-0.18,
1425,-0.45,-0.185,
1426,-0.455,-0.2,
1427,-0.46,-0.185,
1428,-0.47,-0.17,
1429,-0.46,-0.17,
1430,-0.455,-0.165,
1431,-0.445,-0.175,
1432,-0.465,-0.185,
1433,-0.47,-0.17,
1434,-0.46,-0.15,
1435,-0.45,-0.145,
1436,-0.43,-0.14,
1437,-0.435,-0.155,
1438,-0.425,-0.15,
1439,-0.43,-0.145,
1440,-0.435,-0.135,
1441,-0.43,-0.125,
1442,-0.42,-0.13,
1443,-0.42,-0.15,
1444,-0.42,-0.15,
1445,-0.425,-0.15,
1446,-0.41,-0.135,
1447,-0.39,-0.145,
1448,-0.375,-0.15,
1449,-0.38,-0.16,
1450,-0.37,-0.16,
1451,-0.37,-0.17,
1452,-0.38,-0.16,
1453,-0.37,-0.16,
1454,-0.355,-0.165,
1455,-0.345,-0.165,
1456,-0.355,-0.185,
1457,-0.345,-0.175,
1458,-0.34,-0.18,
1459,-0.315,-0.175,
1460,-0.3,-0.18,
1461,-0.295,-0.195,
1462,-0.28,-0.2,
1463,-0.28,-0.21,
1464,-0.27,-0.21,
1465,-0.25,-0.195,
1466,-0.245,-0.21,
1467,-0.245,-0.225,
1468,-0.235,-0.215,
1469,-0.23,-0.22,
1470,-0.235,-0.21,
1471,-0.225,-0.19,
1472,-0.205,-0.2,
1473,-0.195,-0.2,
1474,-0.195,-0.215,
1475,-0.195,-0.215,
1476,-0.2,-0.205,
1477,-0.18,-0.185,
1478,-0.17,-0.185,
1479,-0.17,-0.19,
1480,-0.17,-0.205,
1481,-0.185,-0.2,
1482,-0.185,-0.195,
1483,-0.175,-0.155,
1484,-0.165,-0.15,
1485,-0.165,-0.155,
1486,-0.18,-0.175,
1487,-0.18,-0.195,
1488,-0.185,-0.165,
1489,-0.195,-0.155,
1490,-0.205,-0.15,
1491,-0.23,-0.145,
1492,-0.24,-0.17,
1493,-0.245,-0.19,
1494,-0.265,-0.175,
1495,-0.27,-0.155,
1496,-0.27,-0.165,
1497,-0.285,-0.17,
1498,-0.305,-0.185,
1499,-0.315,-0.185,
1500,-0.315,-0.175,
1501,-0.315,-0.155,
1502,-0.31,-0.15,
1503,-0.315,-0.16,
1504,-0.32,-0.18,
1505,-0.335,-0.185,
1506,-0.34,-0.18,
1507,-0.34,-0.16,
1508,-0.335,-0.165,
1509,-0.34,-0.18,
1510,-0.345,-0.195,
1511,-0.36,-0.22,
1512,-0.365,-0.2,
1513,-0.355,-0.185,
1514,-0.35,-0.17,
1515,-0.345,-0.18,
1516,-0.36,-0.2,
1517,-0.375,-0.21,
1518,-0.37,-0.185,
1519,-0.37,-0.18,
1520,-0.365,-0.165,
1521,-0.36,-0.17,
1522,-0.365,-0.2,
1523,-0.375,-0.185,
1524,-0.365,-0.17,
1525,-0.35,-0.16,
1526,-0.33,-0.15,
1527,-0.345,-0.145,
1528,-0.35,-0.16,
1529,-0.35,-0.165,
1530,-0.35,-0.16,
1531,-0.345,-0.135,
1532,-0.33,-0.11,
1533,-0.335,-0.125,
1534,-0.34,-0.135,
1535,-0.355,-0.15,
1536,-0.365,-0.145,
1537,-0.34,-0.13,
1538,-0.33,-0.125,
1539,-0.335,-0.135,
1540,-0.34,-0.155,
1541,-0.345,-0.18,
1542,-0.345,-0.16,
1543,-0.34,-0.155,
1544,-0.32,-0.155,
1545,-0.33,-0.155,
1546,-0.34,-0.165,
1547,-0.33,-0.17,
1548,-0.335,-0.18,
1549,-0.335,-0.165,
1550,-0.33,-0.15,
1551,-0.335,-0.15,
1552,-0.335,-0.17,
1553,-0.335,-0.18,
1554,-0.335,-0.19,
1555,-0.325,-0.19,
1556,-0.31,-0.175,
1557,-0.315,-0.185,
1558,-0.325,-0.205,
1559,-0.32,-0.2,
1560,-0.335,-0.21,
1561,-0.32,-0.195,
1562,-0.31,-0.185,
1563,-0.315,-0.18,
1564,-0.32,-0.195,
1565,-0.32,-0.21,
1566,-0.32,-0.205,
1567,-0.32,-0.2,
1568,-0.31,-0.18,
1569,-0.32,-0.165,
1570,-0.32,-0.17,
1571,-0.33,-0.16,
1572,-0.34,-0.175,
1573,-0.32,-0.145,
1574,-0.31,-0.15,
1575,-0.31,-0.15,
1576,-0.325,-0.145,
1577,-0.335,-0.165,
1578,-0.335,-0.155,
1579,-0.315,-0.145,
1580,-0.315,-0.135,
1581,-0.33,-0.145,
1582,-0.33,-0.14,
1583,-0.33,-0.15,
1584,-0.33,-0.16,
1585,-0.33,-0.16,
1586,-0.31,-0.16,
1587,-0.32,-0.165,
1588,-0.33,-0.16,
1589,-0.33,-0.17,
1590,-0.33,-0.165,
1591,-0.325,-0.16,
1592,-0.315,-0.17,
1593,-0.32,-0.16,
1594,-0.325,-0.165,
1595,-0.33,-0.17,
1596,-0.335,-0.16,
1597,-0.325,-0.155,
1598,-0.305,-0.165,
1599,-0.315,-0.165,
1600,-0.32,-0.18,
1601,-0.33,-0.185,
1602,-0.33,-0.185,
1603,-0.315,-0.185,
1604,-0.315,-0.19,
1605,-0.31,-0.195,
1606,-0.325,-0.205,
1607,-0.325,-0.195,
1608,-0.325,-0.195,
1609,-0.315,-0.175,
1610,-0.31,-0.18,
1611,-0.315,-0.19,
1612,-0.32,-0.195,
1613,-0.325,-0.185,
1614,-0.32,-0.17,
1615,-0.315,-0.165,
1616,-0.315,-0.16,
1617,-0.31,-0.155,
1618,-0.325,-0.17,
1619,-0.33,-0.145,
1620,-0.325,-0.13,
1621,-0.325,-0.125,
1622,-0.31,-0.135,
1623,-0.3,-0.14,
1624,-0.32,-0.155,
1625,-0.32,-0.15,
1626,-0.33,-0.13,
1627,-0.325,-0.12,
1628,-0.31,-0.13,
1629,-0.32,-0.14,
1630,-0.315,-0.16,
1631,-0.315,-0.16,
1632,-0.32,-0.155,
1633,-0.325,-0.14,
1634,-0.31,-0.14,
1635,-0.305,-0.15,
1636,-0.31,-0.175,
1637,-0.32,-0.185,
1638,-0.33,-0.165,
1639,-0.315,-0.155,
1640,-0.295,-0.145,
1641,-0.29,-0.15,
1642,-0.29,-0.175,
1643,-0.31,-0.17,
1644,-0.3,-0.16,
1645,-0.285,-0.145,
1646,-0.28,-0.145,
1647,-0.28,-0.165,
1648,-0.275,-0.185,
1649,-0.285,-0.185,
1650,-0.275,-0.185,
1651,-0.25,-0.17,
1652,-0.22,-0.17,
1653,-0.2,-0.17,
1654,-0.2,-0.19,
1655,-0.18,-0.195,
1656,-0.155,-0.18,
1657,-0.13,-0.15,
1658,-0.125,-0.17,
1659,-0.13,-0.155,
1660,-0.165,-0.175,
1661,-0.18,-0.19,
1662,-0.19,-0.165,
1663,-0.195,-0.155,
1664,-0.19,-0.14,
1665,-0.2,-0.14,
1666,-0.215,-0.155,
1667,-0.22,-0.155,
1668,-0.225,-0.145,
1669,-0.23,-0.125,
1670,-0.215,-0.13,
1671,-0.235,-0.125,
1672,-0.255,-0.135,
1673,-0.26,-0.145,
1674,-0.285,-0.14,
1675,-0.295,-0.125,
1676,-0.31,-0.12,
1677,-0.31,-0.125,
1678,-0.325,-0.14,
1679,-0.335,-0.145,
1680,-0.355,-0.16,
1681,-0.35,-0.155,
1682,-0.35,-0.14,
1683,-0.36,-0.13,
1684,-0.36,-0.15,
1685,-0.37,-0.17,
1686,-0.375,-0.175,
1687,-0.36,-0.15,
1688,-0.35,-0.125,
1689,-0.35,-0.135,
1690,-0.37,-0.15,
1691,-0.385,-0.17,
1692,-0.385,-0.175,
1693,-0.375,-0.175,
1694,-0.36,-0.17,
1695,-0.37,-0.175,
1696,-0.37,-0.185,
1697,-0.37,-0.195,
1698,-0.375,-0.2,
1699,-0.39,-0.185,
1700,-0.385,-0.175,
1701,-0.405,-0.16,
1702,-0.43,-0.16,
1703,-0.43,-0.175,
1704,-0.415,-0.185,
1705,-0.3,-0.17,
1706,-0.135,-0.16,
1707,0.075,-0.15,
1708,0.275,-0.155,
1709,0.515,-0.165,
1710,0.785,-0.185,
1711,0.975,-0.19,
1712,1.0,-0.22,N
1713,0.82,-0.26,
1714,0.53,-0.285,
1715,0.265,-0.28,
1716,0.0,-0.25,
1717,-0.2,-0.205,
1718,-0.27,-0.14,
1719,-0.3,-0.11,
1720,-0.335,-0.115,
1721,-0.37,-0.125,
1722,-0.37,-0.12,
1723,-0.36,-0.14,
1724,-0.365,-0.14,
1725,-0.39,-0.135,
1726,-0.415,-0.145,
1727,-0.455,-0.15,
1728,-0.48,-0.155,
1729,-0.47,-0.15,
1730,-0.465,-0.135,
1731,-0.48,-0.13,
1732,-0.475,-0.14,
1733,-0.5,-0.145,
1734,-0.495,-0.145,
1735,-0.485,-0.155,
1736,-0.49,-0.155,
1737,-0.49,-0.145,
1738,-0.5,-0.145,
1739,-0.515,-0.16,
1740,-0.515,-0.165,
1741,-0.5,-0.18,
1742,-0.485,-0.18,
1743,-0.485,-0.16,
1744,-0.49,-0.165,
1745,-0.51,-0.17,
1746,-0.52,-0.165,
1747,-0.52,-0.165,
1748,-0.51,-0.16,
1749,-0.495,-0.175,
1750,-0.49,-0.18,
1751,-0.5,-0.175,
1752,-0.5,-0.16,
1753,-0.515,-0.155,
1754,-0.515,-0.155,
1755,-0.52,-0.15,
1756,-0.52,-0.135,
1757,-0.52,-0.14,
1758,-0.525,-0.12,
1759,-0.505,-0.12,
1760,-0.5,-0.125,
1761,-0.49,-0.135,
1762,-0.515,-0.13,
1763,-0.515,-0.14,
1764,-0.535,-0.12,
1765,-0.51,-0.105,
1766,-0.515,-0.11,
1767,-0.515,-0.12,
1768,-0.54,-0.12,
1769,-0.545,-0.125,
1770,-0.52,-0.115,
1771,-0.51,-0.115,
1772,-0.485,-0.115,
1773,-0.485,-0.125,
1774,-0.495,-0.145,
1775,-0.51,-0.155,
1776,-0.525,-0.135,
1777,-0.51,-0.125,
1778,-0.5,-0.11,
1779,-0.495,-0.13,
1780,-0.51,-0.15,
1781,-0.505,-0.145,
1782,-0.5,-0.15,
1783,-0.475,-0.13,
1784,-0.49,-0.12,
1785,-0.48,-0.145,
1786,-0.485,-0.16,
1787,-0.495,-0.185,
1788,-0.495,-0.18,
1789,-0.495,-0.16,
1790,-0.495,-0.16,
1791,-0.49,-0.155,
1792,-0.495,-0.17,
1793,-0.485,-0.19,
1794,-0.47,-0.185,
1795,-0.45,-0.16,
1796,-0.44,-0.15,
1797,-0.44,-0.155,
1798,-0.45,-0.175,
1799,-0.465,-0.185,
1800,-0.455,-0.15,
1801,-0.445,-0.15,
1802,-0.415,-0.135,
1803,-0.42,-0.125,
1804,-0.41,-0.145,
1805,-0.415,-0.145,
1806,-0.41,-0.14,
1807,-0.395,-0.11,
1808,-0.37,-0.095,
1809,-0.365,-0.1,
1810,-0.355,-0.115,
1811,-0.36,-0.135,
1812,-0.37,-0.14,
1813,-0.355,-0.12,
1814,-0.32,-0.105,
1815,-0.305,-0.115,
1816,-0.32,-0.135,
1817,-0.325,-0.155,
1818,-0.33,-0.16,
1819,-0.315,-0.145,
1820,-0.295,-0.14,
1821,-0.3,-0.14,
1822,-0.28,-0.16,
1823,-0.285,-0.175,
1824,-0.28,-0.175,
1825,-0.275,-0.145,
1826,-0.265,-0.145,
1827,-0.265,-0.15,
1828,-0.27,-0.155,
1829,-0.28,-0.17,
1830,-0.29,-0.18,
1831,-0.295,-0.17,
1832,-0.295,-0.16,
1833,-0.305,-0.16,
1834,-0.32,-0.19,
1835,-0.32,-0.195,
1836,-0.335,-0.185,
1837,-0.33,-0.17,
1838,-0.335,-0.145,
1839,-0.36,-0.16,
1840,-0.355,-0.155,
1841,-0.365,-0.18,
1842,-0.38,-0.175,
1843,-0.405,-0.14,
1844,-0.405,-0.125,
1845,-0.415,-0.125,
1846,-0.44,-0.14,
1847,-0.435,-0.15,
1848,-0.445,-0.125,
1849,-0.44,-0.11,
1850,-0.42,-0.085,
1851,-0.425,-0.09,
1852,-0.445,-0.12,
1853,-0.45,-0.12,
1854,-0.46,-0.115,
1855,-0.445,-0.095,
1856,-0.45,-0.08,
1857,-0.455,-0.085,
1858,-0.465,-0.105,
1859,-0.47,-0.105,
1860,-0.465,-0.11,
1861,-0.44,-0.105,
1862,-0.44,-0.1,
1863,-0.46,-0.11,
1864,-0.465,-0.13,
1865,-0.465,-0.14,
1866,-0.455,-0.13,
1867,-0.455,-0.11,
1868,-0.48,-0.11,
1869,-0.49,-0.105,
1870,-0.48,-0.12,
1871,-0.48,-0.135,
1872,-0.505,-0.13,
1873,-0.485,-0.11,
1874,-0.46,-0.095,
1875,-0.455,-0.115,
1876,-0.465,-0.14,
1877,-0.48,-0.16,
1878,-0.49,-0.155,
1879,-0.465,-0.135,
1880,-0.435,-0.14,
1881,-0.43,-0.13,
1882,-0.455,-0.155,
1883,-0.485,-0.17,
1884,-0.49,-0.14,
1885,-0.46,-0.125,
1886,-0.445,-0.125,
1887,-0.45,-0.125,
1888,-0.47,-0.14,
1889,-0.485,-0.13,
1890,-0.47,-0.125,
1891,-0.45,-0.09,
1892,-0.445,-0.09,
1893,-0.44,-0.085,
1894,-0.425,-0.1,
1895,-0.46,-0.1,
1896,-0.46,-0.1,
1897,-0.455,-0.08,
1898,-0.455,-0.07,
1899,-0.455,-0.09,
1900,-0.45,-0.1,
1901,-0.46,-0.105,
1902,-0.455,-0.095,
1903,-0.44,-0.075,
1904,-0.43,-0.09,
1905,-0.43,-0.11,
1906,-0.445,-0.125,
1907,-0.45,-0.125,
1908,-0.45,-0.12,
1909,-0.445,-0.095,
1910,-0.445,-0.09,
1911,-0.46,-0.105,
1912,-0.47,-0.125,
1913,-0.46,-0.12,
1914,-0.465,-0.11,
1915,-0.45,-0.09,
1916,-0.445,-0.09,
1917,-0.43,-0.105,
1918,-0.445,-0.135,
1919,-0.46,-0.14,
1920,-0.46,-0.13,
1921,-0.435,-0.125,
1922,-0.44,-0.12,
1923,-0.43,-0.135,
1924,-0.425,-0.165,
1925,-0.445,-0.135,
1926,-0.455,-0.135,
1927,-0.465,-0.11,
1928,-0.465,-0.12,
1929,-0.47,-0.135,
1930,-0.46,-0.135,
1931,-0.455,-0.125,
1932,-0.445,-0.11,
1933,-0.445,-0.1,
1934,-0.455,-0.09,
1935,-0.45,-0.095,
1936,-0.445,-0.1,
1937,-0.45,-0.1,
1938,-0.47,-0.075,
1939,-0.48,-0.065,
1940,-0.455,-0.085,
1941,-0.435,-0.09,
1942,-0.44,-0.105,
1943,-0.45,-0.095,
1944,-0.47,-0.08,
1945,-0.465,-0.07,
1946,-0.445,-0.09,
1947,-0.445,-0.11,
1948,-0.465,-0.11,
1949,-0.47,-0.115,
1950,-0.465,-0.1,
1951,-0.465,-0.095,
1952,-0.465,-0.09,
1953,-0.475,-0.115,
1954,-0.48,-0.12,
1955,-0.48,-0.12,
1956,-0.475,-0.1,
1957,-0.475,-0.1,
1958,-0.455,-0.1,
1959,-0.46,-0.115,
1960,-0.47,-0.12,
1961,-0.48,-0.115,
1962,-0.48,-0.115,
1963,-0.46,-0.11,
1964,-0.46,-0.12,
1965,-0.46,-0.12,
1966,-0.46,-0.125,
1967,-0.46,-0.14,
1968,-0.47,-0.13,
1969,-0.45,-0.12,
1970,-0.44,-0.125,
1971,-0.42,-0.125,
1972,-0.415,-0.135,
1973,-0.425,-0.125,
1974,-0.425,-0.11,
1975,-0.42,-0.1,
1976,-0.405,-0.105,
1977,-0.39,-0.1,
1978,-0.4,-0.09,
1979,-0.415,-0.09,
1980,-0.4,-0.07,
1981,-0.365,-0.07,
1982,-0.32,-0.065,
1983,-0.29,-0.075,
1984,-0.305,-0.09,
1985,-0.345,-0.075,
1986,-0.385,-0.085,
1987,-0.345,-0.08,
1988,-0.34,-0.085,
1989,-0.325,-0.08,
1990,-0.35,-0.085,
1991,-0.38,-0.1,
1992,-0.4,-0.105,
1993,-0.39,-0.11,
1994,-0.38,-0.11,
1995,-0.4,-0.105,
1996,-0.405,-0.11,
1997,-0.43,-0.11,
1998,-0.45,-0.11,
1999,-0.455,-0.105,
2000,-0.45,-0.1,
2001,-0.46,-0.1,
2002,-0.47,-0.09,
2003,-0.475,-0.12,
2004,-0.49,-0.135,
2005,-0.475,-0.13,
2006,-0.47,-0.125,
2007,-0.465,-0.125,
2008,-0.465,-0.115,
2009,-0.475,-0.13,
2010,-0.47,-0.145,
2011,-0.455,-0.135,
2012,-0.46,-0.125,
2013,-0.505,-0.14,
2014,-0.55,-0.125,
2015,-0.55,-0.14,
2016,-0.535,-0.13,
2017,-0.5,-0.115,
2018,-0.465,-0.1,
2019,-0.45,-0.09,
2020,-0.475,-0.095,
2021,-0.51,-0.105,
2022,-0.535,-0.095,
2023,-0.545,-0.085,
2024,-0.52,-0.075,
2025,-0.525,-0.055,
2026,-0.525,-0.06,
2027,-0.54,-0.08,
2028,-0.535,-0.075,
2029,-0.46,-0.065,
2030,-0.31,-0.055,
2031,-0.08,-0.055,
2032,0.185,-0.065,
2033,0.475,-0.095,
2034,0.78,-0.12,
2035,1.025,-0.135,
2036,1.065,-0.155,N
2037,0.85,-0.18,
2038,0.515,-0.19,
2039,0.205,-0.185,
2040,-0.095,-0.15,
2041,-0.29,-0.095,
2042,-0.38,-0.06,
2043,-0.405,-0.05,
2044,-0.465,-0.085,
2045,-0.485,-0.11,
2046,-0.505,-0.115,
2047,-0.505,-0.1,
2048,-0.505,-0.095,
2049,-0.505,-0.105,
2050,-0.54,-0.11,
2051,-0.565,-0.135,
2052,-0.59,-0.135,
2053,-0.575,-0.12,
2054,-0.555,-0.11,
2055,-0.555,-0.105,
2056,-0.56,-0.105,
2057,-0.565,-0.14,
2058,-0.585,-0.125,
2059,-0.575,-0.125,
2060,-0.565,-0.105,
2061,-0.57,-0.12,
2062,-0.56,-0.13,
2063,-0.565,-0.12,
2064,-0.57,-0.11,
2065,-0.57,-0.09,
2066,-0.56,-0.085,
2067,-0.55,-0.09,
2068,-0.57,-0.075,
2069,-0.56,-0.08,
2070,-0.58,-0.095,
2071,-0.57,-0.07,
2072,-0.575,-0.065,
2073,-0.565,-0.055,
2074,-0.575,-0.07,
2075,-0.57,-0.085,
2076,-0.57,-0.11,
2077,-0.58,-0.095,
2078,-0.57,-0.1,
2079,-0.56,-0.095,
2080,-0.565,-0.105,
2081,-0.56,-0.115,
2082,-0.565,-0.12,
2083,-0.555,-0.12,
2084,-0.555,-0.1,
2085,-0.565,-0.095,
2086,-0.555,-0.105,
2087,-0.56,-0.11,
2088,-0.575,-0.11,
2089,-0.565,-0.08,
2090,-0.55,-0.075,
2091,-0.54,-0.105,
2092,-0.53,-0.13,
2093,-0.54,-0.145,
2094,-0.57,-0.14,
2095,-0.57,-0.125,
2096,-0.565,-0.13,
2097,-0.565,-0.12,
2098,-0.555,-0.145,
2099,-0.555,-0.155,
2100,-0.555,-0.145,
2101,-0.53,-0.125,
2102,-0.52,-0.11,
2103,-0.525,-0.105,
2104,-0.525,-0.12,
2105,-0.535,-0.135,
2106,-0.53,-0.13,
2107,-0.52,-0.095,
2108,-0.5,-0.085,
2109,-0.5,-0.08,
2110,-0.515,-0.095,
2111,-0.525,-0.105,
2112,-0.525,-0.09,
2113,-0.49,-0.075,
2114,-0.475,-0.07,
2115,-0.465,-0.07,
2116,-0.48,-0.095,
2117,-0.47,-0.115,
2118,-0.47,-0.105,
2119,-0.45,-0.09,
2120,-0.445,-0.085,
2121,-0.44,-0.095,
2122,-0.435,-0.1,
2123,-0.445,-0.12,
2124,-0.445,-0.11,
2125,-0.435,-0.095,
2126,-0.435,-0.1,
2127,-0.42,-0.1,
2128,-0.395,-0.12,
2129,-0.38,-0.14,
2130,-0.355,-0.125,
2131,-0.34,-0.125,
2132,-0.33,-0.12,
2133,-0.345,-0.135,
2134,-0.34,-0.155,
2135,-0.345,-0.17,
2136,-0.345,-0.16,
2137,-0.33,-0.15,
2138,-0.31,-0.15,
2139,-0.305,-0.165,
2140,-0.295,-0.175,
2141,-0.3,-0.19,
2142,-0.315,-0.17,
2143,-0.305,-0.155,
2144,-0.28,-0.145,
2145,-0.295,-0.155,
2146,-0.3,-0.165,
2147,-0.305,-0.175,
2148,-0.31,-0.16,
2149,-0.315,-0.14,
2150,-0.325,-0.125,
2151,-0.32,-0.12,
2152,-0.32,-0.135,
2153,-0.35,-0.135,
2154,-0.36,-0.105,
2155,-0.37,-0.09,
2156,-0.37,-0.08,
2157,-0.37,-0.09,
2158,-0.385,-0.1,
2159,-0.405,-0.105,
2160,-0.41,-0.1,
2161,-0.405,-0.09,
2162,-0.41,-0.09,
2163,-0.415,-0.09,
2164,-0.435,-0.11,
2165,-0.445,-0.12,
2166,-0.47,-0.115,
2167,-0.445,-0.105,
2168,-0.445,-0.095,
2169,-0.425,-0.115,
2170,-0.455,-0.135,
2171,-0.46,-0.125,
2172,-0.465,-0.115,
2173,-0.465,-0.09,
2174,-0.465,-0.1,
2175,-0.465,-0.12,
2176,-0.455,-0.14,
2177,-0.45,-0.145,
2178,-0.46,-0.14,
2179,-0.45,-0.13,
2180,-0.445,-0.135,
2181,-0.455,-0.14,
2182,-0.465,-0.145,
2183,-0.46,-0.155,
2184,-0.465,-0.135,
2185,-0.445,-0.13,
2186,-0.43,-0.13,
2187,-0.425,-0.13,
2188,-0.445,-0.135,
2189,-0.44,-0.13,
2190,-0.45,-0.12,
2191,-0.455,-0.115,
2192,-0.435,-0.11,
2193,-0.43,-0.105,
2194,-0.43,-0.105,
2195,-0.455,-0.095,
2196,-0.465,-0.095,
2197,-0.44,-0.09,
2198,-0.425,-0.1,
2199,-0.42,-0.105,
2200,-0.44,-0.105,
2201,-0.45,-0.1,
2202,-0.435,-0.095,
2203,-0.42,-0.08,
2204,-0.4,-0.085,
2205,-0.4,-0.095,
2206,-0.41,-0.105,
2207,-0.425,-0.115,
2208,-0.425,-0.115,
2209,-0.415,-0.12,
2210,-0.415,-0.115,
2211,-0.425,-0.115,
2212,-0.415,-0.12,
2213,-0.415,-0.125,
2214,-0.415,-0.13,
2215,-0.4,-0.12,
2216,-0.4,-0.105,
2217,-0.41,-0.11,
2218,-0.425,-0.13,
2219,-0.425,-0.15,
2220,-0.42,-0.16,
2221,-0.41,-0.155,
2222,-0.4,-0.135,
2223,-0.41,-0.135,
2224,-0.425,-0.155,
2225,-0.435,-0.17,
2226,-0.44,-0.165,
2227,-0.39,-0.135,
2228,-0.385,-0.125,
2229,-0.37,-0.125,
2230,-0.36,-0.15,
2231,-0.35,-0.16,
2232,-0.355,-0.145,
2233,-0.39,-0.13,
2234,-0.41,-0.105,
2235,-0.45,-0.11,
2236,-0.46,-0.12,
2237,-0.465,-0.125,
2238,-0.465,-0.1,
2239,-0.44,-0.1,
2240,-0.39,-0.085,
2241,-0.355,-0.105,
2242,-0.305,-0.11,
2243,-0.315,-0.13,
2244,-0.37,-0.115,
2245,-0.425,-0.1,
2246,-0.435,-0.11,
2247,-0.435,-0.12,
2248,-0.42,-0.13,
2249,-0.39,-0.13,
2250,-0.37,-0.11,
2251,-0.365,-0.095,
2252,-0.35,-0.12,
2253,-0.375,-0.13,
2254,-0.39,-0.14,
2255,-0.425,-0.13,
2256,-0.42,-0.12,
2257,-0.41,-0.13,
2258,-0.405,-0.145,
2259,-0.395,-0.14,
2260,-0.395,-0.15,
2261,-0.385,-0.145,
2262,-0.39,-0.155,
2263,-0.385,-0.155,
2264,-0.38,-0.155,
2265,-0.375,-0.15,
2266,-0.365,-0.14,
2267,-0.36,-0.165,
2268,-0.355,-0.17,
2269,-0.355,-0.155,
2270,-0.35,-0.14,
2271,-0.37,-0.13,
2272,-0.375,-0.135,
2273,-0.38,-0.145,
2274,-0.385,-0.13,
2275,-0.37,-0.12,
2276,-0.355,-0.11,
2277,-0.365,-0.105,
2278,-0.37,-0.115,
2279,-0.38,-0.12,
2280,-0.38,-0.115,
2281,-0.365,-0.095,
2282,-0.34,-0.075,
2283,-0.33,-0.09,
2284,-0.335,-0.115,
2285,-0.345,-0.135,
2286,-0.35,-0.125,
2287,-0.355,-0.115,
2288,-0.325,-0.105,
2289,-0.31,-0.105,
2290,-0.32,-0.135,
2291,-0.33,-0.13,
2292,-0.32,-0.135,
2293,-0.29,-0.11,
2294,-0.255,-0.095,
2295,-0.23,-0.095,
2296,-0.19,-0.115,
2297,-0.175,-0.13,
2298,-0.185,-0.13,
2299,-0.18,-0.125,
2300,-0.2,-0.14,
2301,-0.205,-0.15,
2302,-0.22,-0.16,
2303,-0.23,-0.165,
2304,-0.235,-0.155,
2305,-0.245,-0.135,
2306,-0.25,-0.135,
2307,-0.25,-0.15,
2308,-0.255,-0.165,
2309,-0.25,-0.165,
2310,-0.25,-0.16,
2311,-0.24,-0.135,
2312,-0.255,-0.13,
2313,-0.27,-0.145,
2314,-0.275,-0.145,
2315,-0.275,-0.135,
2316,-0.285,-0.125,
2317,-0.28,-0.11,
2318,-0.305,-0.105,
2319,-0.345,-0.115,
2320,-0.365,-0.125,
2321,-0.355,-0.12,
2322,-0.365,-0.11,
2323,-0.37,-0.09,
2324,-0.355,-0.11,
2325,-0.375,-0.105,
2326,-0.365,-0.125,
2327,-0.385,-0.13,
2328,-0.38,-0.11,
2329,-0.375,-0.095,
2330,-0.36,-0.115,
2331,-0.37,-0.125,
2332,-0.375,-0.14,
2333,-0.385,-0.145,
2334,-0.375,-0.135,
2335,-0.365,-0.13,
2336,-0.345,-0.125,
2337,-0.365,-0.14,
2338,-0.385,-0.145,
2339,-0.42,-0.14,
2340,-0.44,-0.13,
2341,-0.45,-0.12,
2342,-0.38,-0.125,
2343,-0.22,-0.135,
2344,0.01,-0.15,
2345,0.32,-0.155,
2346,0.695,-0.155,
2347,1.095,-0.155,
2348,1.365,-0.17,
2349,1.375,-0.21,N
2350,1.13,-0.22,
2351,0.75,-0.235,
2352,0.39,-0.23,
2353,0.12,-0.185,
2354,-0.015,-0.155,
2355,-0.065,-0.135,
2356,-0.1,-0.135,
2357,-0.17,-0.135,
2358,-0.2,-0.13,
2359,-0.225,-0.11,
2360,-0.235,-0.105,
2361,-0.27,-0.1,
2362,-0.305,-0.105,
2363,-0.355,-0.11,
2364,-0.375,-0.115,
2365,-0.38,-0.105,
2366,-0.395,-0.1,
2367,-0.38,-0.095,
2368,-0.395,-0.105,
2369,-0.405,-0.115,
2370,-0.425,-0.125,
2371,-0.415,-0.12,
2372,-0.41,-0.115,
2373,-0.405,-0.115,
2374,-0.4,-0.125,
2375,-0.42,-0.13,
2376,-0.43,-0.12,
2377,-0.415,-0.12,
2378,-0.415,-0.12,
2379,-0.425,-0.105,
2380,-0.435,-0.125,
2381,-0.425,-0.145,
2382,-0.43,-0.15,
2383,-0.42,-0.14,
2384,-0.41,-0.135,
2385,-0.405,-0.13,
2386,-0.415,-0.15,
2387,-0.415,-0.17,
2388,-0.425,-0.165,
2389,-0.41,-0.155,
2390,-0.4,-0.145,
2391,-0.39,-0.14,
2392,-0.405,-0.16,
2393,-0.415,-0.16,
2394,-0.42,-0.155,
2395,-0.41,-0.14,
2396,-0.39,-0.135,
2397,-0.39,-0.14,
2398,-0.395,-0.15,
2399,-0.415,-0.155,
2400,-0.42,-0.14,
2401,-0.4,-0.12,
2402,-0.395,-0.1,
2403,-0.41,-0.105,
2404,-0.42,-0.12,
2405,-0.42,-0.125,
2406,-0.415,-0.125,
2407,-0.415,-0.11,
2408,-0.39,-0.095,
2409,-0.395,-0.11,
2410,-0.39,-0.125,
2411,-0.395,-0.145,
2412,-0.39,-0.12,
2413,-0.395,-0.12,
2414,-0.39,-0.125,
2415,-0.385,-0.135,
2416,-0.385,-0.15,
2417,-0.395,-0.155,
2418,-0.385,-0.145,
2419,-0.375,-0.13,
2420,-0.36,-0.135,
2421,-0.375,-0.14,
2422,-0.37,-0.15,
2423,-0.36,-0.145,
2424,-0.355,-0.145,
2425,-0.33,-0.13,
2426,-0.32,-0.12,
2427,-0.315,-0.145,
2428,-0.32,-0.175,
2429,-0.325,-0.18,
2430,-0.32,-0.17,
2431,-0.28,-0.16,
2432,-0.26,-0.15,
2433,-0.255,-0.165,
2434,-0.26,-0.175,
2435,-0.265,-0.19,
2436,-0.26,-0.165,
2437,-0.23,-0.155,
2438,-0.205,-0.155,
2439,-0.19,-0.165,
2440,-0.19,-0.165,
2441,-0.19,-0.16,
2442,-0.185,-0.145,
2443,-0.155,-0.12,
2444,-0.135,-0.125,
2445,-0.115,-0.13,
2446,-0.125,-0.135,
2447,-0.125,-0.15,
2448,-0.11,-0.12,
2449,-0.11,-0.115,
2450,-0.105,-0.13,
2451,-0.09,-0.12,
2452,-0.09,-0.13,
2453,-0.08,-0.14,
2454,-0.08,-0.14,
2455,-0.09,-0.135,
2456,-0.065,-0.14,
2457,-0.09,-0.15,
2458,-0.09,-0.17,
2459,-0.09,-0.165,
2460,-0.1,-0.15,
2461,-0.11,-0.15,
2462,-0.125,-0.145,
2463,-0.13,-0.15,
2464,-0.145,-0.165,
2465,-0.165,-0.155,
2466,-0.19,-0.145,
2467,-0.195,-0.14,
2468,-0.2,-0.15,
2469,-0.21,-0.165,
2470,-0.23,-0.17,
2471,-0.245,-0.18,
2472,-0.26,-0.17,
2473,-0.27,-0.165,
2474,-0.265,-0.165,
2475,-0.27,-0.175,
2476,-0.28,-0.17,
2477,-0.295,-0.17,
2478,-0.325,-0.155,
2479,-0.315,-0.155,
2480,-0.31,-0.145,
2481,-0.3,-0.155,
2482,-0.29,-0.14,
2483,-0.31,-0.14,
2484,-0.32,-0.14,
2485,-0.32,-0.125,
2486,-0.305,-0.135,
2487,-0.31,-0.14,
2488,-0.33,-0.14,
2489,-0.345,-0.125,
2490,-0.355,-0.125,
2491,-0.34,-0.125,
2492,-0.33,-0.125,
2493,-0.335,-0.12,
2494,-0.325,-0.125,
2495,-0.325,-0.135,
2496,-0.33,-0.125,
2497,-0.33,-0.13,
2498,-0.32,-0.135,
2499,-0.325,-0.14,
2500,-0.33,-0.14,
2501,-0.335,-0.145,
2502,-0.335,-0.14,
2503,-0.33,-0.14,
2504,-0.315,-0.14,
2505,-0.325,-0.14,
2506,-0.32,-0.14,
2507,-0.315,-0.14,
2508,-0.325,-0.14,
2509,-0.31,-0.135,
2510,-0.315,-0.15,
2511,-0.31,-0.145,
2512,-0.295,-0.16,
2513,-0.305,-0.165,
2514,-0.315,-0.175,
2515,-0.325,-0.18,
2516,-0.31,-0.17,
2517,-0.31,-0.16,
2518,-0.305,-0.165,
2519,-0.295,-0.18,
2520,-0.31,-0.19,
2521,-0.305,-0.17,
2522,-0.295,-0.16,
2523,-0.285,-0.155,
2524,-0.285,-0.145,
2525,-0.285,-0.175,
2526,-0.3,-0.17,
2527,-0.31,-0.145,
2528,-0.3,-0.13,
2529,-0.295,-0.125,
2530,-0.28,-0.135,
2531,-0.31,-0.135,
2532,-0.31,-0.14,
2533,-0.295,-0.115,
2534,-0.275,-0.105,
2535,-0.275,-0.105,
2536,-0.29,-0.12,
2537,-0.3,-0.125,
2538,-0.31,-0.14,
2539,-0.3,-0.115,
2540,-0.275,-0.125,
2541,-0.28,-0.13,
2542,-0.285,-0.16,
2543,-0.3,-0.18,
2544,-0.31,-0.155,
2545,-0.3,-0.14,
2546,-0.28,-0.135,
2547,-0.285,-0.145,
2548,-0.3,-0.18,
2549,-0.305,-0.17,
2550,-0.31,-0.155,
2551,-0.3,-0.14,
2552,-0.295,-0.15,
2553,-0.29,-0.175,
2554,-0.285,-0.185,
2555,-0.295,-0.18,
2556,-0.295,-0.175,
2557,-0.275,-0.165,
2558,-0.28,-0.165,
2559,-0.28,-0.175,
2560,-0.3,-0.175,
2561,-0.305,-0.185,
2562,-0.3,-0.17,
2563,-0.29,-0.16,
2564,-0.285,-0.165,
2565,-0.28,-0.16,
2566,-0.285,-0.165,
2567,-0.29,-0.16,
2568,-0.3,-0.145,
2569,-0.29,-0.13,
2570,-0.295,-0.13,
2571,-0.29,-0.135,
2572,-0.29,-0.14,
2573,-0.295,-0.13,
2574,-0.3,-0.125,
2575,-0.3,-0.12,
2576,-0.295,-0.11,
2577,-0.29,-0.115,
2578,-0.295,-0.125,
2579,-0.29,-0.13,
2580,-0.31,-0.14,
2581,-0.3,-0.14,
2582,-0.29,-0.155,
2583,-0.285,-0.145,
2584,-0.285,-0.145,
2585,-0.305,-0.15,
2586,-0.3,-0.155,
2587,-0.3,-0.155,
2588,-0.295,-0.16,
2589,-0.28,-0.155,
2590,-0.285,-0.14,
2591,-0.305,-0.15,
2592,-0.3,-0.15,
2593,-0.295,-0.16,
2594,-0.27,-0.155,
2595,-0.26,-0.17,
2596,-0.26,-0.18,
2597,-0.27,-0.18,
2598,-0.285,-0.18,
2599,-0.265,-0.185,
2600,-0.25,-0.175,
2601,-0.245,-0.175,
2602,-0.255,-0.175,
2603,-0.27,-0.19,
2604,-0.27,-0.2,
2605,-0.25,-0.175,
2606,-0.23,-0.17,
2607,-0.19,-0.155,
2608,-0.15,-0.16,
2609,-0.135,-0.155,
2610,-0.135,-0.135,
2611,-0.155,-0.135,
2612,-0.15,-0.125,
2613,-0.15,-0.135,
2614,-0.15,-0.135,
2615,-0.16,-0.155,
2616,-0.185,-0.14,
2617,-0.21,-0.145,
2618,-0.205,-0.13,
2619,-0.205,-0.125,
2620,-0.215,-0.13,
2621,-0.225,-0.135,
2622,-0.23,-0.145,
2623,-0.22,-0.14,
2624,-0.21,-0.145,
2625,-0.23,-0.145,
2626,-0.25,-0.15,
2627,-0.29,-0.165,
2628,-0.3,-0.175,
2629,-0.295,-0.16,
2630,-0.305,-0.14,
2631,-0.305,-0.145,
2632,-0.33,-0.155,
2633,-0.335,-0.17,
2634,-0.335,-0.17,
2635,-0.34,-0.18,
2636,-0.335,-0.165,
2637,-0.33,-0.155,
2638,-0.32,-0.165,
2639,-0.315,-0.195,
2640,-0.34,-0.19,
2641,-0.34,-0.2,
2642,-0.315,-0.175,
2643,-0.315,-0.175,
2644,-0.335,-0.185,
2645,-0.345,-0.21,
2646,-0.35,-0.2,
2647,-0.35,-0.195,
2648,-0.335,-0.18,
2649,-0.335,-0.17,
2650,-0.33,-0.165,
2651,-0.345,-0.18,
2652,-0.355,-0.17,
2653,-0.355,-0.15,
2654,-0.365,-0.145,
2655,-0.335,-0.14,
2656,-0.205,-0.14,
2657,0.015,-0.15,
2658,0.32,-0.135,
2659,0.695,-0.12,
2660,1.075,-0.125,
2661,1.325,-0.145,
2662,1.305,-0.2,N
2663,1.045,-0.235,
2664,0.69,-0.255,
2665,0.36,-0.225,
2666,0.105,-0.19,
2667,-0.02,-0.16,
2668,-0.055,-0.15,
2669,-0.095,-0.165,
2670,-0.145,-0.17,
2671,-0.185,-0.16,
2672,-0.205,-0.155,
2673,-0.21,-0.15,
2674,-0.235,-0.16,
2675,-0.27,-0.17,
2676,-0.285,-0.175,
2677,-0.29,-0.145,
2678,-0.3,-0.15,
2679,-0.305,-0.155,
2680,-0.32,-0.18,
2681,-0.315,-0.2,
2682,-0.305,-0.195,
2683,-0.31,-0.19,
2684,-0.36,-0.175,
2685,-0.425,-0.185,
2686,-0.47,-0.195,
2687,-0.495,-0.2,
2688,-0.495,-0.195,
2689,-0.475,-0.185,
2690,-0.455,-0.175,
2691,-0.45,-0.17,
2692,-0.45,-0.17,
2693,-0.455,-0.18,
2694,-0.45,-0.165,
2695,-0.445,-0.155,
2696,-0.425,-0.135,
2697,-0.42,-0.13,
2698,-0.42,-0.14,
2699,-0.42,-0.145,
2700,-0.42,-0.145,
2701,-0.415,-0.125,
2702,-0.415,-0.13,
2703,-0.405,-0.13,
2704,-0.415,-0.15,
2705,-0.435,-0.155,
2706,-0.435,-0.14,
2707,-0.41,-0.125,
2708,-0.4,-0.125,
2709,-0.41,-0.13,
2710,-0.41,-0.155,
2711,-0.42,-0.17,
2712,-0.415,-0.155,
2713,-0.41,-0.14,
2714,-0.415,-0.135,
2715,-0.415,-0.145,
2716,-0.42,-0.16,
2717,-0.42,-0.17,
2718,-0.435,-0.16,
2719,-0.435,-0.145,
2720,-0.43,-0.14,
2721,-0.44,-0.15,
2722,-0.435,-0.175,
2723,-0.43,-0.18,
2724,-0.43,-0.17,
2725,-0.42,-0.16,
2726,-0.405,-0.165,
2727,-0.4,-0.165,
2728,-0.42,-0.195,
2729,-0.435,-0.2,
2730,-0.445,-0.185,
2731,-0.415,-0.17,
2732,-0.405,-0.165,
2733,-0.41,-0.18,
2734,-0.415,-0.185,
2735,-0.42,-0.2,
2736,-0.435,-0.18,
2737,-0.41,-0.155,
2738,-0.4,-0.155,
2739,-0.39,-0.16,
2740,-0.39,-0.165,
2741,-0.405,-0.175,
2742,-0.395,-0.155,
2743,-0.37,-0.13,
2744,-0.365,-0.12,
2745,-0.36,-0.125,
2746,-0.36,-0.135,
2747,-0.36,-0.14,
2748,-0.33,-0.14,
2749,-0.32,-0.115,
2750,-0.315,-0.115,
2751,-0.325,-0.12,
2752,-0.33,-0.14,
2753,-0.32,-0.15,
2754,-0.32,-0.15,
2755,-0.28,-0.14,
2756,-0.25,-0.14,
2757,-0.235,-0.13,
2758,-0.21,-0.15,
2759,-0.21,-0.17,
2760,-0.225,-0.165,
2761,-0.19,-0.155,
2762,-0.165,-0.155,
2763,-0.17,-0.155,
2764,-0.18,-0.175,
2765,-0.195,-0.18,
2766,-0.21,-0.165,
2767,-0.2,-0.145,
2768,-0.175,-0.16,
2769,-0.16,-0.19,
2770,-0.175,-0.195,
2771,-0.175,-0.215,
2772,-0.18,-0.19,
2773,-0.17,-0.18,
2774,-0.165,-0.18,
2775,-0.16,-0.18,
2776,-0.175,-0.195,
2777,-0.19,-0.195,
2778,-0.195,-0.185,
2779,-0.19,-0.175,
2780,-0.22,-0.165,
2781,-0.255,-0.17,
2782,-0.3,-0.17,
2783,-0.34,-0.165,
2784,-0.335,-0.14,
2785,-0.32,-0.125,
2786,-0.315,-0.125,
2787,-0.335,-0.14,
2788,-0.345,-0.14,
2789,-0.35,-0.15,
2790,-0.35,-0.13,
2791,-0.36,-0.11,
2792,-0.365,-0.115,
2793,-0.365,-0.11,
2794,-0.365,-0.125,
2795,-0.355,-0.14,
2796,-0.37,-0.135,
2797,-0.37,-0.115,
2798,-0.365,-0.12,
2799,-0.365,-0.14,
2800,-0.375,-0.16,
2801,-0.385,-0.155,
2802,-0.385,-0.14,
2803,-0.37,-0.135,
2804,-0.38,-0.13,
2805,-0.39,-0.15,
2806,-0.405,-0.165,
2807,-0.4,-0.16,
2808,-0.405,-0.135,
2809,-0.405,-0.14,
2810,-0.385,-0.145,
2811,-0.375,-0.165,
2812,-0.385,-0.18,
2813,-0.395,-0.185,
2814,-0.415,-0.175,
2815,-0.395,-0.175,
2816,-0.375,-0.175,
2817,-0.365,-0.165,
2818,-0.37,-0.17,
2819,-0.395,-0.175,
2820,-0.39,-0.17,
2821,-0.395,-0.16,
2822,-0.38,-0.16,
2823,-0.375,-0.155,
2824,-0.37,-0.155,
2825,-0.39,-0.145,
2826,-0.405,-0.135,
2827,-0.385,-0.115,
2828,-0.37,-0.115,
2829,-0.36,-0.12,
2830,-0.36,-0.115,
2831,-0.37,-0.115,
2832,-0.375,-0.125,
2833,-0.385,-0.11,
2834,-0.365,-0.11,
2835,-0.36,-0.105,
2836,-0.36,-0.115,
2837,-0.355,-0.12,
2838,-0.355,-0.125,
2839,-0.345,-0.125,
2840,-0.345,-0.13,
2841,-0.34,-0.14,
2842,-0.34,-0.14,
2843,-0.355,-0.14,
2844,-0.37,-0.14,
2845,-0.36,-0.135,
2846,-0.355,-0.14,
2847,-0.35,-0.12,
2848,-0.335,-0.135,
2849,-0.34,-0.14,
2850,-0.335,-0.155,
2851,-0.335,-0.145,
2852,-0.34,-0.145,
2853,-0.34,-0.14,
2854,-0.365,-0.145,
2855,-0.35,-0.175,
2856,-0.335,-0.18,
2857,-0.335,-0.17,
2858,-0.325,-0.155,
2859,-0.34,-0.155,
2860,-0.355,-0.155,
2861,-0.375,-0.165,
2862,-0.375,-0.175,
2863,-0.345,-0.17,
2864,-0.325,-0.14,
2865,-0.325,-0.14,
2866,-0.34,-0.15,
2867,-0.365,-0.145,
2868,-0.37,-0.14,
2869,-0.375,-0.125,
2870,-0.355,-0.115,
2871,-0.365,-0.1,
2872,-0.37,-0.105,
2873,-0.395,-0.13,
2874,-0.385,-0.135,
2875,-0.36,-0.11,
2876,-0.345,-0.11,
2877,-0.325,-0.1,
2878,-0.315,-0.11,
2879,-0.31,-0.125,
2880,-0.305,-0.115,
2881,-0.255,-0.115,
2882,-0.21,-0.1,
2883,-0.23,-0.105,
2884,-0.29,-0.115,
2885,-0.36,-0.15,
2886,-0.405,-0.15,
2887,-0.44,-0.145,
2888,-0.455,-0.13,
2889,-0.44,-0.14,
2890,-0.42,-0.145,
2891,-0.4,-0.145,
2892,-0.385,-0.15,
2893,-0.36,-0.125,
2894,-0.33,-0.125,
2895,-0.295,-0.135,
2896,-0.3,-0.16,
2897,-0.345,-0.17,
2898,-0.4,-0.17,
2899,-0.41,-0.165,
2900,-0.38,-0.16,
2901,-0.365,-0.165,
2902,-0.37,-0.185,
2903,-0.375,-0.175,
2904,-0.38,-0.16,
2905,-0.35,-0.14,
2906,-0.34,-0.14,
2907,-0.34,-0.14,
2908,-0.33,-0.14,
2909,-0.33,-0.14,
2910,-0.33,-0.13,
2911,-0.32,-0.11,
2912,-0.32,-0.1,
2913,-0.325,-0.115,
2914,-0.34,-0.125,
2915,-0.34,-0.125,
2916,-0.315,-0.105,
2917,-0.295,-0.095,
2918,-0.25,-0.095,
2919,-0.205,-0.095,
2920,-0.175,-0.115,
2921,-0.195,-0.115,
2922,-0.215,-0.11,
2923,-0.215,-0.12,
2924,-0.215,-0.115,
2925,-0.215,-0.14,
2926,-0.22,-0.14,
2927,-0.235,-0.145,
2928,-0.25,-0.135,
2929,-0.25,-0.135,
2930,-0.25,-0.135,
2931,-0.245,-0.145,
2932,-0.25,-0.145,
2933,-0.265,-0.15,
2934,-0.285,-0.135,
2935,-0.295,-0.15,
2936,-0.305,-0.155,
2937,-0.31,-0.165,
2938,-0.345,-0.165,
2939,-0.37,-0.175,
2940,-0.375,-0.16,
2941,-0.365,-0.17,
2942,-0.355,-0.16,
2943,-0.35,-0.16,
2944,-0.35,-0.155,
2945,-0.36,-0.165,
2946,-0.38,-0.17,
2947,-0.37,-0.17,
2948,-0.36,-0.155,
2949,-0.36,-0.14,
2950,-0.365,-0.13,
2951,-0.375,-0.145,
2952,-0.39,-0.145,
2953,-0.39,-0.135,
2954,-0.365,-0.12,
2955,-0.355,-0.105,
2956,-0.36,-0.125,
2957,-0.38,-0.14,
2958,-0.38,-0.12,
2959,-0.38,-0.11,
2960,-0.385,-0.11,
2961,-0.395,-0.115,
2962,-0.41,-0.115,
2963,-0.445,-0.135,
2964,-0.44,-0.145,
2965,-0.365,-0.135,
2966,-0.175,-0.125,
2967,0.08,-0.125,
2968,0.35,-0.125,
2969,0.655,-0.145,
2970,0.975,-0.17,
2971,1.21,-0.19,
2972,1.22,-0.21,N
2973,0.995,-0.235,
2974,0.67,-0.26,
2975,0.335,-0.27,
2976,0.045,-0.24,
2977,-0.105,-0.185,
2978,-0.125,-0.145,
2979,-0.165,-0.14,
2980,-0.22,-0.145,
2981,-0.24,-0.175,
2982,-0.27,-0.185,
2983,-0.295,-0.175,
2984,-0.33,-0.155,
2985,-0.36,-0.145,
2986,-0.385,-0.175,
2987,-0.4,-0.18,
2988,-0.405,-0.175,
2989,-0.405,-0.17,
2990,-0.41,-0.145,
2991,-0.425,-0.155,
2992,-0.45,-0.145,
2993,-0.48,-0.16,
2994,-0.485,-0.155,
2995,-0.465,-0.135,
2996,-0.45,-0.115,
2997,-0.445,-0.125,
2998,-0.435,-0.125,
2999,-0.435,-0.135,
3000,-0.445,-0.135,
3001,-0.44,-0.125,
3002,-0.44,-0.115,
3003,-0.46,-0.105,
3004,-0.465,-0.115,
3005,-0.475,-0.125,
3006,-0.475,-0.13,
3007,-0.47,-0.145,
3008,-0.45,-0.14,
3009,-0.45,-0.12,
3010,-0.45,-0.135,
3011,-0.45,-0.155,
3012,-0.45,-0.155,
3013,-0.435,-0.14,
3014,-0.43,-0.145,
3015,-0.445,-0.13,
3016,-0.455,-0.145,
3017,-0.465,-0.15,
3018,-0.475,-0.155,
3019,-0.465,-0.145,
3020,-0.455,-0.145,
3021,-0.46,-0.125,
3022,-0.455,-0.135,
3023,-0.475,-0.155,
3024,-0.475,-0.16,
3025,-0.47,-0.175,
3026,-0.45,-0.16,
3027,-0.435,-0.155,
3028,-0.44,-0.175,
3029,-0.44,-0.175,
3030,-0.455,-0.17,
3031,-0.45,-0.17,
3032,-0.44,-0.165,
3033,-0.415,-0.175,
3034,-0.43,-0.18,
3035,-0.44,-0.175,
3036,-0.445,-0.16,
3037,-0.435,-0.165,
3038,-0.425,-0.15,
3039,-0.42,-0.14,
3040,-0.415,-0.135,
3041,-0.425,-0.135,
3042,-0.425,-0.14,
3043,-0.42,-0.135,
3044,-0.41,-0.13,
3045,-0.405,-0.12,
3046,-0.405,-0.12,
3047,-0.405,-0.13,
3048,-0.405,-0.135,
3049,-0.395,-0.125,
3050,-0.38,-0.115,
3051,-0.37,-0.11,
3052,-0.36,-0.115,
3053,-0.37,-0.135,
3054,-0.37,-0.13,
3055,-0.355,-0.13,
3056,-0.33,-0.13,
3057,-0.315,-0.135,
3058,-0.32,-0.145,
3059,-0.32,-0.14,
3060,-0.325,-0.145,
3061,-0.31,-0.135,
3062,-0.295,-0.15,
3063,-0.29,-0.145,
3064,-0.285,-0.155,
3065,-0.285,-0.15,
3066,-0.29,-0.14,
3067,-0.275,-0.135,
3068,-0.255,-0.16,
3069,-0.24,-0.155,
3070,-0.22,-0.17,
3071,-0.215,-0.185,
3072,-0.215,-0.16,
3073,-0.19,-0.17,
3074,-0.175,-0.175,
3075,-0.175,-0.18,
3076,-0.195,-0.185,
3077,-0.2,-0.19,
3078,-0.195,-0.185,
3079,-0.155,-0.17,
3080,-0.13,-0.17,
3081,-0.12,-0.16,
3082,-0.11,-0.18,
3083,-0.11,-0.165,
3084,-0.11,-0.16,
3085,-0.105,-0.14,
3086,-0.125,-0.14,
3087,-0.145,-0.14,
3088,-0.16,-0.145,
3089,-0.18,-0.14,
3090,-0.185,-0.125,
3091,-0.185,-0.12,
3092,-0.175,-0.105,
3093,-0.165,-0.13,
3094,-0.17,-0.135,
3095,-0.205,-0.135,
3096,-0.245,-0.115,
3097,-0.26,-0.115,
3098,-0.27,-0.12,
3099,-0.27,-0.13,
3100,-0.28,-0.14,
3101,-0.285,-0.135,
3102,-0.3,-0.135,
3103,-0.295,-0.125,
3104,-0.3,-0.125,
3105,-0.3,-0.13,
3106,-0.315,-0.135,
3107,-0.32,-0.15,
3108,-0.33,-0.135,
3109,-0.305,-0.115,
3110,-0.3,-0.11,
3111,-0.32,-0.13,
3112,-0.32,-0.14,
3113,-0.315,-0.16,
3114,-0.33,-0.14,
3115,-0.32,-0.13,
3116,-0.31,-0.135,
3117,-0.32,-0.16,
3118,-0.33,-0.16,
3119,-0.34,-0.175,
3120,-0.335,-0.165,
3121,-0.33,-0.15,
3122,-0.315,-0.14,
3123,-0.31,-0.155,
3124,-0.31,-0.165,
3125,-0.33,-0.16,
3126,-0.335,-0.145,
3127,-0.325,-0.12,
3128,-0.32,-0.12,
3129,-0.305,-0.125,
3130,-0.33,-0.125,
3131,-0.33,-0.12,
3132,-0.33,-0.105,
3133,-0.315,-0.095,
3134,-0.295,-0.085,
3135,-0.29,-0.105,
3136,-0.3,-0.115,
3137,-0.3,-0.125,
3138,-0.325,-0.1,
3139,-0.3,-0.09,
3140,-0.295,-0.095,
3141,-0.285,-0.1,
3142,-0.3,-0.12,
3143,-0.305,-0.125,
3144,-0.295,-0.11,
3145,-0.295,-0.105,
3146,-0.28,-0.11,
3147,-0.265,-0.115,
3148,-0.275,-0.13,
3149,-0.3,-0.13,
3150,-0.305,-0.115,
3151,-0.315,-0.11,
3152,-0.315,-0.095,
3153,-0.3,-0.12,
3154,-0.31,-0.135,
3155,-0.305,-0.145,
3156,-0.29,-0.14,
3157,-0.28,-0.12,
3158,-0.265,-0.12,
3159,-0.295,-0.13,
3160,-0.285,-0.16,
3161,-0.31,-0.17,
3162,-0.29,-0.17,
3163,-0.275,-0.145,
3164,-0.27,-0.13,
3165,-0.275,-0.145,
3166,-0.27,-0.15,
3167,-0.28,-0.165,
3168,-0.31,-0.16,
3169,-0.3,-0.145,
3170,-0.29,-0.125,
3171,-0.295,-0.13,
3172,-0.28,-0.14,
3173,-0.29,-0.145,
3174,-0.295,-0.14,
3175,-0.28,-0.105,
3176,-0.265,-0.085,
3177,-0.27,-0.09,
3178,-0.295,-0.1,
3179,-0.305,-0.11,
3180,-0.31,-0.115,
3181,-0.305,-0.1,
3182,-0.28,-0.08,
3183,-0.285,-0.08,
3184,-0.29,-0.1,
3185,-0.295,-0.11,
3186,-0.3,-0.115,
3187,-0.295,-0.08,
3188,-0.29,-0.095,
3189,-0.28,-0.105,
3190,-0.27,-0.12,
3191,-0.28,-0.125,
3192,-0.285,-0.13,
3193,-0.28,-0.12,
3194,-0.27,-0.105,
3195,-0.285,-0.11,
3196,-0.295,-0.115,
3197,-0.295,-0.125,
3198,-0.3,-0.14,
3199,-0.295,-0.115,
3200,-0.285,-0.1,
3201,-0.28,-0.11,
3202,-0.285,-0.13,
3203,-0.29,-0.15,
3204,-0.29,-0.16,
3205,-0.275,-0.15,
3206,-0.275,-0.13,
3207,-0.27,-0.13,
3208,-0.295,-0.14,
3209,-0.32,-0.165,
3210,-0.33,-0.15,
3211,-0.315,-0.145,
3212,-0.31,-0.125,
3213,-0.3,-0.13,
3214,-0.305,-0.14,
3215,-0.305,-0.155,
3216,-0.305,-0.155,
3217,-0.3,-0.13,
3218,-0.28,-0.105,
3219,-0.28,-0.1,
3220,-0.29,-0.105,
3221,-0.295,-0.115,
3222,-0.31,-0.115,
3223,-0.29,-0.1,
3224,-0.29,-0.085,
3225,-0.275,-0.085,
3226,-0.27,-0.09,
3227,-0.275,-0.105,
3228,-0.285,-0.115,
3229,-0.28,-0.09,
3230,-0.27,-0.085,
3231,-0.265,-0.085,
3232,-0.27,-0.1,
3233,-0.28,-0.125,
3234,-0.275,-0.12,
3235,-0.25,-0.11,
3236,-0.245,-0.09,
3237,-0.26,-0.105,
3238,-0.265,-0.11,
3239,-0.265,-0.12,
3240,-0.25,-0.135,
3241,-0.21,-0.12,
3242,-0.175,-0.105,
3243,-0.145,-0.095,
3244,-0.12,-0.105,
3245,-0.105,-0.115,
3246,-0.115,-0.125,
3247,-0.115,-0.125,
3248,-0.13,-0.115,
3249,-0.12,-0.12,
3250,-0.135,-0.15,
3251,-0.135,-0.15,
3252,-0.165,-0.16,
3253,-0.165,-0.15,
3254,-0.18,-0.135,
3255,-0.185,-0.14,
3256,-0.205,-0.14,
3257,-0.195,-0.15,
3258,-0.21,-0.16,
3259,-0.205,-0.16,
3260,-0.21,-0.135,
3261,-0.225,-0.125,
3262,-0.24,-0.13,
3263,-0.27,-0.125,
3264,-0.29,-0.13,
3265,-0.3,-0.12,
3266,-0.305,-0.11,
3267,-0.305,-0.105,
3268,-0.32,-0.095,
3269,-0.325,-0.09,
3270,-0.335,-0.11,
3271,-0.315,-0.1,
3272,-0.31,-0.1,
3273,-0.315,-0.1,
3274,-0.32,-0.09,
3275,-0.32,-0.095,
3276,-0.34,-0.105,
3277,-0.315,-0.1,
3278,-0.31,-0.105,
3279,-0.31,-0.11,
3280,-0.325,-0.115,
3281,-0.325,-0.125,
3282,-0.335,-0.11,
3283,-0.325,-0.125,
3284,-0.3,-0.115,
3285,-0.3,-0.125,
3286,-0.315,-0.115,
3287,-0.335,-0.115,
3288,-0.335,-0.125,
3289,-0.34,-0.115,
3290,-0.355,-0.115,
3291,-0.38,-0.11,
3292,-0.385,-0.11,
3293,-0.37,-0.12,
3294,-0.3,-0.135,
3295,-0.13,-0.13,
3296,0.07,-0.12,
3297,0.29,-0.13,
3298,0.545,-0.15,
3299,0.83,-0.16,
3300,1.06,-0.18,
3301,1.145,-0.22,N
3302,1.015,-0.255,
3303,0.735,-0.285,
3304,0.425,-0.275,
3305,0.165,-0.26,
3306,-0.04,-0.22,
3307,-0.145,-0.155,
3308,-0.155,-0.125,
3309,-0.17,-0.125,
3310,-0.185,-0.12,
3311,-0.21,-0.12,
3312,-0.245,-0.105,
3313,-0.28,-0.095,
3314,-0.29,-0.085,
3315,-0.315,-0.105,
3316,-0.345,-0.1,
3317,-0.37,-0.11,
3318,-0.395,-0.105,
3319,-0.435,-0.085,
3320,-0.43,-0.08,
3321,-0.43,-0.09,
3322,-0.42,-0.1,
3323,-0.42,-0.1,
3324,-0.445,-0.105,
3325,-0.44,-0.09,
3326,-0.435,-0.1,
3327,-0.425,-0.12,
3328,-0.43,-0.13,
3329,-0.44,-0.14,
3330,-0.44,-0.13,
3331,-0.43,-0.11,
3332,-0.43,-0.09,
3333,-0.435,-0.115,
3334,-0.44,-0.13,
3335,-0.455,-0.135,
3336,-0.455,-0.125,
3337,-0.445,-0.105,
3338,-0.435,-0.11,
3339,-0.425,-0.115,
3340,-0.42,-0.13,
3341,-0.42,-0.145,
3342,-0.43,-0.14,
3343,-0.44,-0.125,
3344,-0.415,-0.11,
3345,-0.415,-0.13,
3346,-0.43,-0.135,
3347,-0.435,-0.145,
3348,-0.44,-0.14,
3349,-0.435,-0.135,
3350,-0.43,-0.125,
3351,-0.415,-0.135,
3352,-0.42,-0.145,
3353,-0.42,-0.155,
3354,-0.43,-0.155,
3355,-0.42,-0.13,
3356,-0.41,-0.105,
3357,-0.405,-0.095,
3358,-0.41,-0.105,
3359,-0.41,-0.115,
3360,-0.425,-0.12,
3361,-0.41,-0.105,
3362,-0.39,-0.07,
3363,-0.38,-0.08,
3364,-0.385,-0.09,
3365,-0.405,-0.115,
3366,-0.415,-0.105,
3367,-0.415,-0.095,
3368,-0.41,-0.075,
3369,-0.405,-0.08,
3370,-0.4,-0.09,
3371,-0.41,-0.11,
3372,-0.42,-0.125,
3373,-0.41,-0.115,
3374,-0.41,-0.1,
3375,-0.395,-0.105,
3376,-0.395,-0.115,
3377,-0.405,-0.125,
3378,-0.4,-0.13,
3379,-0.39,-0.12,
3380,-0.38,-0.11,
3381,-0.375,-0.115,
3382,-0.375,-0.115,
3383,-0.38,-0.115,
3384,-0.375,-0.125,
3385,-0.37,-0.125,
3386,-0.365,-0.12,
3387,-0.355,-0.135,
3388,-0.35,-0.14,
3389,-0.35,-0.145,
3390,-0.355,-0.16,
3391,-0.35,-0.155,
3392,-0.335,-0.155,
3393,-0.315,-0.14,
3394,-0.305,-0.145,
3395,-0.3,-0.15,
3396,-0.3,-0.155,
3397,-0.28,-0.15,
3398,-0.265,-0.15,
3399,-0.255,-0.15,
3400,-0.265,-0.145,
3401,-0.26,-0.14,
3402,-0.265,-0.135,
3403,-0.27,-0.135,
3404,-0.245,-0.115,
3405,-0.225,-0.125,
3406,-0.235,-0.125,
3407,-0.215,-0.115,
3408,-0.215,-0.105,
3409,-0.205,-0.11,
3410,-0.19,-0.105,
3411,-0.175,-0.11,
3412,-0.175,-0.11,
3413,-0.18,-0.12,
3414,-0.175,-0.105,
3415,-0.17,-0.11,
3416,-0.15,-0.115,
3417,-0.14,-0.12,
3418,-0.145,-0.125,
3419,-0.15,-0.14,
3420,-0.16,-0.135,
3421,-0.15,-0.125,
3422,-0.17,-0.125,
3423,-0.17,-0.145,
3424,-0.175,-0.145,
3425,-0.21,-0.145,
3426,-0.24,-0.125,
3427,-0.25,-0.115,
3428,-0.25,-0.11,
3429,-0.24,-0.115,
3430,-0.245,-0.13,
3431,-0.25,-0.13,
3432,-0.275,-0.13,
3433,-0.26,-0.12,
3434,-0.275,-0.125,
3435,-0.29,-0.135,
3436,-0.305,-0.15,
3437,-0.315,-0.145,
3438,-0.33,-0.15,
3439,-0.32,-0.125,
3440,-0.33,-0.12,
3441,-0.325,-0.145,
3442,-0.305,-0.16,
3443,-0.315,-0.155,
3444,-0.325,-0.15,
3445,-0.325,-0.135,
3446,-0.325,-0.125,
3447,-0.33,-0.13,
3448,-0.32,-0.13,
3449,-0.34,-0.14,
3450,-0.365,-0.135,
3451,-0.35,-0.11,
3452,-0.355,-0.08,
3453,-0.355,-0.085,
3454,-0.35,-0.095,
3455,-0.355,-0.11,
3456,-0.36,-0.115,
3457,-0.355,-0.095,
3458,-0.325,-0.07,
3459,-0.305,-0.08,
3460,-0.32,-0.09,
3461,-0.325,-0.095,
3462,-0.34,-0.09,
3463,-0.34,-0.1,
3464,-0.335,-0.08,
3465,-0.32,-0.075,
3466,-0.33,-0.085,
3467,-0.345,-0.105,
3468,-0.345,-0.11,
3469,-0.33,-0.11,
3470,-0.31,-0.1,
3471,-0.315,-0.09,
3472,-0.325,-0.105,
3473,-0.335,-0.1,
3474,-0.345,-0.115,
3475,-0.335,-0.1,
3476,-0.32,-0.1,
3477,-0.325,-0.1,
3478,-0.335,-0.1,
3479,-0.345,-0.125,
3480,-0.35,-0.12,
3481,-0.335,-0.13,
3482,-0.335,-0.12,
3483,-0.315,-0.13,
3484,-0.32,-0.115,
3485,-0.315,-0.13,
3486,-0.325,-0.145,
3487,-0.31,-0.135,
3488,-0.31,-0.125,
3489,-0.305,-0.14,
3490,-0.305,-0.135,
3491,-0.31,-0.135,
3492,-0.33,-0.13,
3493,-0.325,-0.125,
3494,-0.315,-0.115,
3495,-0.295,-0.12,
3496,-0.295,-0.11,
3497,-0.3,-0.105,
3498,-0.31,-0.11,
3499,-0.295,-0.1,
3500,-0.29,-0.08,
3501,-0.29,-0.08,
3502,-0.315,-0.085,
3503,-0.315,-0.085,
3504,-0.31,-0.09,
3505,-0.28,-0.09,
3506,-0.28,-0.075,
3507,-0.28,-0.08,
3508,-0.305,-0.08,
3509,-0.31,-0.08,
3510,-0.325,-0.075,
3511,-0.335,-0.095,
3512,-0.335,-0.09,
3513,-0.315,-0.1,
3514,-0.32,-0.1,
3515,-0.315,-0.115,
3516,-0.32,-0.105,
3517,-0.295,-0.105,
3518,-0.285,-0.095,
3519,-0.285,-0.115,
3520,-0.29,-0.105,
3521,-0.305,-0.105,
3522,-0.31,-0.12,
3523,-0.31,-0.1,
3524,-0.295,-0.11,
3525,-0.305,-0.125,
3526,-0.31,-0.125,
3527,-0.32,-0.125,
3528,-0.32,-0.135,
3529,-0.325,-0.125,
3530,-0.32,-0.135,
3531,-0.325,-0.135,
3532,-0.315,-0.15,
3533,-0.31,-0.145,
3534,-0.31,-0.145,
3535,-0.33,-0.135,
3536,-0.315,-0.125,
3537,-0.33,-0.135,
3538,-0.315,-0.13,
3539,-0.33,-0.13,
3540,-0.325,-0.115,
3541,-0.32,-0.12,
3542,-0.305,-0.1,
3543,-0.315,-0.105,
3544,-0.315,-0.1,
3545,-0.315,-0.09,
3546,-0.335,-0.1,
3547,-0.325,-0.09,
3548,-0.325,-0.085,
3549,-0.32,-0.09,
3550,-0.31,-0.09,
3551,-0.315,-0.08,
3552,-0.32,-0.09,
3553,-0.32,-0.085,
3554,-0.31,-0.09,
3555,-0.3,-0.1,
3556,-0.295,-0.105,
3557,-0.32,-0.1,
3558,-0.335,-0.105,
3559,-0.305,-0.1,
3560,-0.275,-0.1,
3561,-0.27,-0.105,
3562,-0.27,-0.115,
3563,-0.28,-0.11,
3564,-0.305,-0.095,
3565,-0.305,-0.09,
3566,-0.275,-0.095,
3567,-0.275,-0.1,
3568,-0.275,-0.095,
3569,-0.285,-0.11,
3570,-0.29,-0.12,
3571,-0.27,-0.12,
3572,-0.215,-0.13,
3573,-0.2,-0.14,
3574,-0.185,-0.13,
3575,-0.155,-0.12,
3576,-0.135,-0.12,
3577,-0.145,-0.13,
3578,-0.175,-0.125,
3579,-0.195,-0.14,
3580,-0.215,-0.14,
3581,-0.23,-0.145,
3582,-0.245,-0.135,
3583,-0.24,-0.13,
3584,-0.24,-0.125,
3585,-0.23,-0.125,
3586,-0.23,-0.12,
3587,-0.24,-0.115,
3588,-0.255,-0.095,
3589,-0.255,-0.095,
3590,-0.27,-0.095,
3591,-0.28,-0.095,
3592,-0.285,-0.095,
3593,-0.3,-0.09,
3594,-0.315,-0.095,
3595,-0.34,-0.085,
3596,-0.34,-0.085,
3597,-0.34,-0.095,
3598,-0.33,-0.105,
3599,-0.34,-0.1,
3600,-0.36,-0.1,
3601,-0.35,-0.11,
3602,-0.335,-0.105,
3603,-0.32,-0.105,
3604,-0.345,-0.115,
3605,-0.36,-0.12,
3606,-0.37,-0.115,
3607,-0.375,-0.105,
3608,-0.385,-0.11,
3609,-0.37,-0.11,
3610,-0.355,-0.12,
3611,-0.36,-0.125,
3612,-0.375,-0.115,
3613,-0.385,-0.105,
3614,-0.36,-0.1,
3615,-0.33,-0.11,
3616,-0.33,-0.13,
3617,-0.345,-0.145,
3618,-0.385,-0.145,
3619,-0.4,-0.125,
3620,-0.415,-0.13,
3621,-0.415,-0.14,
3622,-0.42,-0.135,
3623,-0.385,-0.14,
3624,-0.28,-0.135,
3625,-0.08,-0.12,
3626,0.155,-0.11,
3627,0.425,-0.12,
3628,0.745,-0.14,
3629,1.03,-0.16,
3630,1.165,-0.155,
3631,1.085,-0.17,N
3632,0.85,-0.195,
3633,0.57,-0.205,
3634,0.3,-0.2,
3635,0.03,-0.165,
3636,-0.145,-0.12,
3637,-0.195,-0.06,
3638,-0.22,-0.05,
3639,-0.265,-0.055,
3640,-0.305,-0.075,
3641,-0.33,-0.09,
3642,-0.335,-0.09,
3643,-0.355,-0.07,
3644,-0.38,-0.075,
3645,-0.42,-0.09,
3646,-0.445,-0.11,
3647,-0.45,-0.105,
3648,-0.46,-0.11,
3649,-0.445,-0.11,
3650,-0.435,-0.085,
3651,-0.45,-0.11,
3652,-0.45,-0.12,
3653,-0.465,-0.13,
3654,-0.475,-0.115,
3655,-0.475,-0.105,
3656,-0.475,-0.1,
3657,-0.48,-0.115,
3658,-0.47,-0.125,
3659,-0.46,-0.145,
3660,-0.465,-0.135,
3661,-0.46,-0.13,
3662,-0.44,-0.13,
3663,-0.43,-0.14,
3664,-0.43,-0.145,
3665,-0.44,-0.15,
3666,-0.45,-0.15,
3667,-0.465,-0.135,
3668,-0.48,-0.125,
3669,-0.485,-0.135,
3670,-0.485,-0.15,
3671,-0.475,-0.135,
3672,-0.48,-0.13,
3673,-0.475,-0.12,
3674,-0.465,-0.105,
3675,-0.44,-0.115,
3676,-0.45,-0.11,
3677,-0.455,-0.115,
3678,-0.455,-0.115,
3679,-0.465,-0.09,
3680,-0.45,-0.075,
3681,-0.45,-0.08,
3682,-0.465,-0.09,
3683,-0.485,-0.095,
3684,-0.485,-0.09,
3685,-0.475,-0.075,
3686,-0.47,-0.07,
3687,-0.465,-0.085,
3688,-0.465,-0.095,
3689,-0.47,-0.115,
3690,-0.47,-0.11,
3691,-0.455,-0.105,
3692,-0.45,-0.1,
3693,-0.44,-0.115,
3694,-0.44,-0.115,
3695,-0.46,-0.125,
3696,-0.475,-0.125,
3697,-0.445,-0.115,
3698,-0.445,-0.105,
3699,-0.42,-0.11,
3700,-0.42,-0.12,
3701,-0.42,-0.13,
3702,-0.43,-0.135,
3703,-0.435,-0.11,
3704,-0.42,-0.12,
3705,-0.41,-0.135,
3706,-0.41,-0.14,
3707,-0.405,-0.16,
3708,-0.405,-0.145,
3709,-0.395,-0.13,
3710,-0.385,-0.12,
3711,-0.375,-0.145,
3712,-0.365,-0.15,
3713,-0.38,-0.15,
3714,-0.385,-0.135,
3715,-0.365,-0.13,
3716,-0.35,-0.125,
3717,-0.345,-0.14,
3718,-0.335,-0.145,
3719,-0.335,-0.14,
3720,-0.33,-0.12,
3721,-0.31,-0.105,
3722,-0.305,-0.075,
3723,-0.285,-0.085,
3724,-0.275,-0.1,
3725,-0.275,-0.11,
3726,-0.28,-0.11,
3727,-0.265,-0.095,
3728,-0.255,-0.09,
3729,-0.235,-0.1,
3730,-0.2,-0.11,
3731,-0.22,-0.105,
3732,-0.23,-0.11,
3733,-0.23,-0.1,
3734,-0.225,-0.09,
3735,-0.2,-0.115,
3736,-0.19,-0.135,
3737,-0.185,-0.145,
3738,-0.2,-0.15,
3739,-0.195,-0.12,
3740,-0.185,-0.115,
3741,-0.175,-0.12,
3742,-0.18,-0.13,
3743,-0.18,-0.135,
3744,-0.185,-0.14,
3745,-0.19,-0.14,
3746,-0.175,-0.115,
3747,-0.185,-0.13,
3748,-0.2,-0.14,
3749,-0.225,-0.16,
3750,-0.245,-0.16,
3751,-0.25,-0.145,
3752,-0.245,-0.125,
3753,-0.235,-0.135,
3754,-0.245,-0.15,
3755,-0.275,-0.16,
3756,-0.29,-0.155,
3757,-0.3,-0.135,
3758,-0.295,-0.125,
3759,-0.305,-0.115,
3760,-0.305,-0.12,
3761,-0.315,-0.155,
3762,-0.335,-0.135,
3763,-0.335,-0.125,
3764,-0.34,-0.105,
3765,-0.325,-0.09,
3766,-0.335,-0.09,
3767,-0.355,-0.105,
3768,-0.365,-0.1,
3769,-0.365,-0.095,
3770,-0.355,-0.07,
3771,-0.34,-0.065,
3772,-0.355,-0.065,
3773,-0.35,-0.095,
3774,-0.36,-0.085,
3775,-0.36,-0.06,
3776,-0.35,-0.06,
3777,-0.365,-0.05,
3778,-0.37,-0.075,
3779,-0.37,-0.095,
3780,-0.37,-0.105,
3781,-0.365,-0.1,
3782,-0.35,-0.09,
3783,-0.345,-0.085,
3784,-0.355,-0.095,
3785,-0.375,-0.11,
3786,-0.385,-0.11,
3787,-0.39,-0.095,
3788,-0.365,-0.075,
3789,-0.345,-0.075,
3790,-0.34,-0.085,
3791,-0.35,-0.1,
3792,-0.36,-0.11,
3793,-0.35,-0.11,
3794,-0.345,-0.095,
3795,-0.33,-0.105,
3796,-0.34,-0.11,
3797,-0.345,-0.13,
3798,-0.365,-0.145,
3799,-0.35,-0.135,
3800,-0.33,-0.125,
3801,-0.315,-0.11,
3802,-0.325,-0.105,
3803,-0.33,-0.13,
3804,-0.345,-0.13,
3805,-0.335,-0.125,
3806,-0.33,-0.115,
3807,-0.32,-0.11,
3808,-0.315,-0.115,
3809,-0.335,-0.12,
3810,-0.33,-0.105,
3811,-0.335,-0.1,
3812,-0.32,-0.09,
3813,-0.32,-0.085,
3814,-0.315,-0.07,
3815,-0.32,-0.085,
3816,-0.32,-0.09,
3817,-0.325,-0.09,
3818,-0.325,-0.06,
3819,-0.325,-0.06,
3820,-0.32,-0.05,
3821,-0.325,-0.075,
3822,-0.335,-0.075,
3823,-0.325,-0.085,
3824,-0.32,-0.075,
3825,-0.31,-0.095,
3826,-0.315,-0.07,
3827,-0.32,-0.1,
3828,-0.34,-0.115,
3829,-0.32,-0.105,
3830,-0.32,-0.09,
3831,-0.305,-0.09,
3832,-0.31,-0.08,
3833,-0.315,-0.095,
3834,-0.34,-0.105,
3835,-0.345,-0.1,
3836,-0.32,-0.095,
3837,-0.33,-0.095,
3838,-0.315,-0.1,
3839,-0.315,-0.125,
3840,-0.33,-0.14,
3841,-0.33,-0.145,
3842,-0.33,-0.12,
3843,-0.335,-0.11,
3844,-0.335,-0.12,
3845,-0.32,-0.125,
3846,-0.33,-0.13,
3847,-0.325,-0.125,
3848,-0.32,-0.115,
3849,-0.315,-0.11,
3850,-0.325,-0.115,
3851,-0.32,-0.115,
3852,-0.34,-0.12,
3853,-0.33,-0.115,
3854,-0.33,-0.1,
3855,-0.32,-0.085,
3856,-0.33,-0.08,
3857,-0.345,-0.085,
3858,-0.335,-0.1,
3859,-0.34,-0.085,
3860,-0.325,-0.07,
3861,-0.32,-0.065,
3862,-0.315,-0.06,
3863,-0.31,-0.075,
3864,-0.33,-0.08,
3865,-0.325,-0.08,
3866,-0.32,-0.07,
3867,-0.32,-0.06,
3868,-0.325,-0.07,
3869,-0.33,-0.085,
3870,-0.345,-0.095,
3871,-0.34,-0.095,
3872,-0.325,-0.09,
3873,-0.32,-0.085,
3874,-0.335,-0.085,
3875,-0.33,-0.1,
3876,-0.345,-0.105,
3877,-0.335,-0.095,
3878,-0.325,-0.08,
3879,-0.31,-0.085,
3880,-0.315,-0.07,
3881,-0.32,-0.1,
3882,-0.335,-0.13,
3883,-0.34,-0.125,
3884,-0.32,-0.11,
3885,-0.32,-0.11,
3886,-0.32,-0.11,
3887,-0.31,-0.115,
3888,-0.31,-0.135,
3889,-0.3,-0.135,
3890,-0.3,-0.12,
3891,-0.31,-0.105,
3892,-0.315,-0.105,
3893,-0.325,-0.13,
3894,-0.32,-0.13,
3895,-0.31,-0.115,
3896,-0.285,-0.095,
3897,-0.27,-0.08,
3898,-0.285,-0.08,
3899,-0.285,-0.09,
3900,-0.3,-0.095,
3901,-0.29,-0.075,
3902,-0.26,-0.065,
3903,-0.235,-0.045,
3904,-0.215,-0.055,
3905,-0.19,-0.08,
3906,-0.17,-0.075,
3907,-0.14,-0.07,
3908,-0.135,-0.06,
3909,-0.14,-0.045,
3910,-0.17,-0.055,
3911,-0.165,-0.085,
3912,-0.175,-0.095,
3913,-0.185,-0.09,
3914,-0.195,-0.085,
3915,-0.2,-0.085,
3916,-0.205,-0.095,
3917,-0.225,-0.115,
3918,-0.225,-0.105,
3919,-0.22,-0.11,
3920,-0.215,-0.095,
3921,-0.225,-0.085,
3922,-0.235,-0.09,
3923,-0.26,-0.115,
3924,-0.28,-0.115,
3925,-0.28,-0.12,
3926,-0.295,-0.1,
3927,-0.295,-0.105,
3928,-0.305,-0.115,
3929,-0.315,-0.13,
3930,-0.325,-0.14,
3931,-0.33,-0.14,
3932,-0.315,-0.11,
3933,-0.305,-0.105,
3934,-0.3,-0.105,
3935,-0.315,-0.13,
3936,-0.335,-0.13,
3937,-0.34,-0.12,
3938,-0.33,-0.095,
3939,-0.315,-0.095,
3940,-0.32,-0.1,
3941,-0.335,-0.115,
3942,-0.34,-0.095,
3943,-0.345,-0.085,
3944,-0.34,-0.07,
3945,-0.325,-0.055,
3946,-0.335,-0.075,
3947,-0.355,-0.085,
3948,-0.365,-0.085,
3949,-0.375,-0.075,
3950,-0.385,-0.055,
3951,-0.39,-0.04,
3952,-0.395,-0.05,
3953,-0.36,-0.075,
3954,-0.245,-0.085,
3955,-0.04,-0.08,
3956,0.19,-0.065,
3957,0.48,-0.055,
3958,0.81,-0.09,
3959,1.095,-0.13,
3960,1.19,-0.165,N
3961,1.035,-0.2,
3962,0.735,-0.21,
3963,0.45,-0.19,
3964,0.18,-0.175,
3965,-0.015,-0.155,
3966,-0.095,-0.12,
3967,-0.11,-0.08,
3968,-0.135,-0.07,
3969,-0.165,-0.09,
3970,-0.19,-0.11,
3971,-0.225,-0.14,
3972,-0.245,-0.125,
3973,-0.27,-0.115,
3974,-0.305,-0.105,
3975,-0.325,-0.1,
3976,-0.365,-0.125,
3977,-0.38,-0.13,
3978,-0.395,-0.125,
3979,-0.39,-0.12,
3980,-0.385,-0.1,
3981,-0.375,-0.105,
3982,-0.385,-0.115,
3983,-0.395,-0.125,
3984,-0.41,-0.115,
3985,-0.405,-0.085,
3986,-0.4,-0.065,
3987,-0.395,-0.07,
3988,-0.4,-0.09,
3989,-0.42,-0.075,
3990,-0.42,-0.09,
3991,-0.41,-0.07,
3992,-0.405,-0.05,
3993,-0.405,-0.05,
3994,-0.405,-0.07,
3995,-0.405,-0.105,
3996,-0.4,-0.09,
3997,-0.39,-0.06,
3998,-0.385,-0.065,
3999,-0.4,-0.075,
4000,-0.405,-0.085,
4001,-0.4,-0.1,
4002,-0.415,-0.09,
4003,-0.4,-0.085,
4004,-0.42,-0.08,
4005,-0.385,-0.08,
4006,-0.39,-0.09,
4007,-0.385,-0.115,
4008,-0.4,-0.1,
4009,-0.385,-0.085,
4010,-0.39,-0.065,
4011,-0.395,-0.08,
4012,-0.41,-0.115,
4013,-0.415,-0.14,
4014,-0.415,-0.12,
4015,-0.415,-0.12,
4016,-0.395,-0.105,
4017,-0.39,-0.115,
4018,-0.38,-0.125,
4019,-0.38,-0.12,
4020,-0.395,-0.12,
4021,-0.39,-0.105,
4022,-0.375,-0.105,
4023,-0.37,-0.125,
4024,-0.365,-0.12,
4025,-0.39,-0.125,
4026,-0.4,-0.11,
4027,-0.395,-0.085,
4028,-0.38,-0.07,
4029,-0.365,-0.085,
4030,-0.365,-0.08,
4031,-0.365,-0.1,
4032,-0.37,-0.09,
4033,-0.355,-0.07,
4034,-0.345,-0.05,
4035,-0.345,-0.07,
4036,-0.34,-0.07,
4037,-0.345,-0.085,
4038,-0.35,-0.08,
4039,-0.335,-0.075,
4040,-0.32,-0.06,
4041,-0.305,-0.07,
4042,-0.295,-0.095,
4043,-0.295,-0.095,
4044,-0.31,-0.095,
4045,-0.28,-0.105,
4046,-0.265,-0.09,
4047,-0.245,-0.09,
4048,-0.235,-0.115,
4049,-0.245,-0.115,
4050,-0.25,-0.105,
4051,-0.24,-0.085,
4052,-0.205,-0.1,
4053,-0.19,-0.1,
4054,-0.18,-0.115,
4055,-0.165,-0.125,
4056,-0.155,-0.125,
4057,-0.16,-0.13,
4058,-0.145,-0.125,
4059,-0.14,-0.135,
4060,-0.145,-0.145,
4061,-0.135,-0.14,
4062,-0.155,-0.135,
4063,-0.155,-0.125,
4064,-0.125,-0.14,
4065,-0.115,-0.14,
4066,-0.105,-0.14,
4067,-0.105,-0.14,
4068,-0.115,-0.13,
4069,-0.115,-0.125,
4070,-0.1,-0.11,
4071,-0.105,-0.105,
4072,-0.13,-0.11,
4073,-0.145,-0.105,
4074,-0.175,-0.105,
4075,-0.17,-0.085,
4076,-0.175,-0.09,
4077,-0.17,-0.09,
4078,-0.19,-0.08,
4079,-0.215,-0.085,
4080,-0.22,-0.09,
4081,-0.23,-0.09,
4082,-0.235,-0.085,
4083,-0.24,-0.09,
4084,-0.26,-0.075,
4085,-0.28,-0.08,
4086,-0.29,-0.09,
4087,-0.3,-0.105,
4088,-0.28,-0.085,
4089,-0.285,-0.09,
4090,-0.3,-0.085,
4091,-0.31,-0.095,
4092,-0.33,-0.095,
4093,-0.335,-0.1,
4094,-0.32,-0.095,
4095,-0.31,-0.09,
4096,-0.325,-0.09,
4097,-0.325,-0.11,
4098,-0.34,-0.14,
4099,-0.34,-0.125,
4100,-0.325,-0.11,
4101,-0.31,-0.11,
4102,-0.31,-0.1,
4103,-0.33,-0.115,
4104,-0.345,-0.13,
4105,-0.34,-0.135,
4106,-0.335,-0.105,
4107,-0.335,-0.1,
4108,-0.315,-0.105,
4109,-0.325,-0.125,
4110,-0.335,-0.125,
4111,-0.34,-0.09,
4112,-0.325,-0.085,
4113,-0.3,-0.07,
4114,-0.3,-0.065,
4115,-0.32,-0.075,
4116,-0.335,-0.085,
4117,-0.32,-0.065,
4118,-0.305,-0.06,
4119,-0.305,-0.055,
4120,-0.31,-0.055,
4121,-0.315,-0.08,
4122,-0.32,-0.09,
4123,-0.315,-0.08,
4124,-0.305,-0.06,
4125,-0.3,-0.06,
4126,-0.29,-0.065,
4127,-0.295,-0.075,
4128,-0.305,-0.095,
4129,-0.285,-0.08,
4130,-0.28,-0.08,
4131,-0.28,-0.08,
4132,-0.295,-0.08,
4133,-0.315,-0.09,
4134,-0.325,-0.105,
4135,-0.315,-0.1,
4136,-0.295,-0.08,
4137,-0.285,-0.075,
4138,-0.27,-0.08,
4139,-0.28,-0.09,
4140,-0.3,-0.1,
4141,-0.295,-0.095,
4142,-0.28,-0.09,
4143,-0.27,-0.095,
4144,-0.27,-0.105,
4145,-0.285,-0.135,
4146,-0.3,-0.13,
4147,-0.295,-0.13,
4148,-0.28,-0.1,
4149,-0.275,-0.105,
4150,-0.275,-0.12,
4151,-0.28,-0.125,
4152,-0.29,-0.125,
4153,-0.275,-0.105,
4154,-0.27,-0.09,
4155,-0.265,-0.075,
4156,-0.275,-0.075,
4157,-0.29,-0.08,
4158,-0.295,-0.09,
4159,-0.295,-0.065,
4160,-0.285,-0.055,
4161,-0.27,-0.055,
4162,-0.28,-0.06,
4163,-0.29,-0.08,
4164,-0.3,-0.08,
4165,-0.285,-0.07,
4166,-0.275,-0.04,
4167,-0.275,-0.045,
4168,-0.275,-0.065,
4169,-0.285,-0.08,
4170,-0.285,-0.1,
4171,-0.295,-0.09,
4172,-0.285,-0.075,
4173,-0.275,-0.08,
4174,-0.28,-0.08,
4175,-0.28,-0.115,
4176,-0.3,-0.105,
4177,-0.29,-0.09,
4178,-0.29,-0.085,
4179,-0.28,-0.08,
4180,-0.275,-0.09,
4181,-0.29,-0.1,
4182,-0.305,-0.095,
4183,-0.275,-0.105,
4184,-0.265,-0.095,
4185,-0.26,-0.095,
4186,-0.26,-0.105,
4187,-0.275,-0.125,
4188,-0.295,-0.14,
4189,-0.285,-0.12,
4190,-0.28,-0.1,
4191,-0.265,-0.1,
4192,-0.275,-0.105,
4193,-0.295,-0.12,
4194,-0.3,-0.125,
4195,-0.285,-0.11,
4196,-0.285,-0.08,
4197,-0.275,-0.09,
4198,-0.275,-0.095,
4199,-0.28,-0.1,
4200,-0.285,-0.1,
4201,-0.285,-0.07,
4202,-0.28,-0.055,
4203,-0.29,-0.06,
4204,-0.27,-0.07,
4205,-0.285,-0.075,
4206,-0.285,-0.075,
4207,-0.285,-0.055,
4208,-0.28,-0.05,
4209,-0.275,-0.05,
4210,-0.27,-0.06,
4211,-0.285,-0.08,
4212,-0.29,-0.09,
4213,-0.28,-0.085,
4214,-0.28,-0.075,
4215,-0.26,-0.075,
4216,-0.255,-0.075,
4217,-0.27,-0.095,
4218,-0.28,-0.095,
4219,-0.27,-0.08,
4220,-0.255,-0.065,
4221,-0.25,-0.06,
4222,-0.25,-0.075,
4223,-0.25,-0.095,
4224,-0.245,-0.095,
4225,-0.245,-0.075,
4226,-0.225,-0.06,
4227,-0.2,-0.08,
4228,-0.18,-0.1,
4229,-0.17,-0.11,
4230,-0.15,-0.125,
4231,-0.12,-0.095,
4232,-0.09,-0.09,
4233,-0.09,-0.08,
4234,-0.105,-0.095,
4235,-0.12,-0.125,
4236,-0.145,-0.12,
4237,-0.155,-0.11,
4238,-0.165,-0.09,
4239,-0.16,-0.09,
4240,-0.16,-0.105,
4241,-0.16,-0.105,
4242,-0.165,-0.1,
4243,-0.16,-0.08,
4244,-0.165,-0.065,
4245,-0.19,-0.06,
4246,-0.205,-0.07,
4247,-0.23,-0.075,
4248,-0.25,-0.065,
4249,-0.26,-0.06,
4250,-0.285,-0.055,
4251,-0.27,-0.07,
4252,-0.265,-0.065,
4253,-0.265,-0.07,
4254,-0.27,-0.07,
4255,-0.26,-0.065,
4256,-0.255,-0.065,
4257,-0.265,-0.09,
4258,-0.265,-0.075,
4259,-0.29,-0.085,
4260,-0.3,-0.09,
4261,-0.29,-0.08,
4262,-0.28,-0.085,
4263,-0.275,-0.085,
4264,-0.27,-0.09,
4265,-0.28,-0.085,
4266,-0.285,-0.085,
4267,-0.295,-0.08,
4268,-0.29,-0.08,
4269,-0.275,-0.1,
4270,-0.275,-0.105,
4271,-0.295,-0.105,
4272,-0.325,-0.11,
4273,-0.34,-0.095,
4274,-0.355,-0.095,
4275,-0.32,-0.105,
4276,-0.26,-0.09,
4277,-0.13,-0.1,
4278,0.03,-0.1,
4279,0.285,-0.095,
4280,0.6,-0.09,
4281,0.95,-0.12,
4282,1.19,-0.15,
4283,1.215,-0.18,N
4284,0.995,-0.21,
4285,0.67,-0.21,
4286,0.375,-0.195,
4287,0.17,-0.16,
4288,0.055,-0.105,
4289,0.02,-0.065,
4290,0.005,-0.05,
4291,-0.025,-0.05,
4292,-0.05,-0.065,
4293,-0.07,-0.06,
4294,-0.105,-0.06,
4295,-0.145,-0.065,
4296,-0.21,-0.065,
4297,-0.245,-0.065,
4298,-0.275,-0.06,
4299,-0.28,-0.065,
4300,-0.285,-0.07,
4301,-0.3,-0.075,
4302,-0.32,-0.08,
4303,-0.32,-0.085,
4304,-0.33,-0.08,
4305,-0.315,-0.075,
4306,-0.32,-0.07,
4307,-0.33,-0.085,
4308,-0.345,-0.095,
4309,-0.34,-0.08,
4310,-0.335,-0.08,
4311,-0.345,-0.09,
4312,-0.34,-0.08,
4313,-0.34,-0.105,
4314,-0.355,-0.09,
4315,-0.35,-0.1,
4316,-0.355,-0.105,
4317,-0.345,-0.11,
4318,-0.35,-0.125,
4319,-0.365,-0.115,
4320,-0.36,-0.115,
4321,-0.365,-0.105,
4322,-0.345,-0.105,
4323,-0.345,-0.11,
4324,-0.34,-0.115,
4325,-0.35,-0.115,
4326,-0.365,-0.09,
4327,-0.35,-0.105,
4328,-0.35,-0.085,
4329,-0.33,-0.09,
4330,-0.33,-0.075,
4331,-0.34,-0.08,
4332,-0.35,-0.07,
4333,-0.345,-0.07,
4334,-0.35,-0.055,
4335,-0.325,-0.065,
4336,-0.32,-0.06,
4337,-0.315,-0.065,
4338,-0.345,-0.065,
4339,-0.35,-0.065,
4340,-0.34,-0.05,
4341,-0.33,-0.07,
4342,-0.33,-0.065,
4343,-0.335,-0.08,
4344,-0.335,-0.095,
4345,-0.33,-0.095,
4346,-0.33,-0.08,
4347,-0.315,-0.085,
4348,-0.315,-0.08,
4349,-0.315,-0.09,
4350,-0.315,-0.1,
4351,-0.315,-0.085,
4352,-0.295,-0.095,
4353,-0.29,-0.085,
4354,-0.305,-0.08,
4355,-0.31,-0.085,
4356,-0.315,-0.09,
4357,-0.29,-0.1,
4358,-0.27,-0.12,
4359,-0.255,-0.125,
4360,-0.26,-0.115,
4361,-0.27,-0.115,
4362,-0.29,-0.12,
4363,-0.285,-0.13,
4364,-0.26,-0.12,
4365,-0.25,-0.11,
4366,-0.25,-0.105,
4367,-0.235,-0.105,
4368,-0.245,-0.11,
4369,-0.225,-0.12,
4370,-0.215,-0.105,
4371,-0.185,-0.1,
4372,-0.185,-0.09,
4373,-0.19,-0.08,
4374,-0.2,-0.09,
4375,-0.21,-0.08,
4376,-0.19,-0.085,
4377,-0.17,-0.075,
4378,-0.175,-0.075,
4379,-0.155,-0.08,
4380,-0.15,-0.085,
4381,-0.135,-0.085,
4382,-0.12,-0.075,
4383,-0.1,-0.065,
4384,-0.085,-0.065,
4385,-0.085,-0.085,
4386,-0.09,-0.12,
4387,-0.09,-0.11,
4388,-0.075,-0.1,
4389,-0.06,-0.11,
4390,-0.05,-0.1,
4391,-0.065,-0.125,
4392,-0.085,-0.13,
4393,-0.07,-0.115,
4394,-0.055,-0.115,
4395,-0.07,-0.1,
4396,-0.075,-0.105,
4397,-0.09,-0.115,
4398,-0.105,-0.14,
4399,-0.115,-0.135,
4400,-0.115,-0.13,
4401,-0.125,-0.12,
4402,-0.13,-0.125,
4403,-0.155,-0.15,
4404,-0.17,-0.145,
4405,-0.165,-0.145,
4406,-0.175,-0.13,
4407,-0.175,-0.115,
4408,-0.195,-0.11,
4409,-0.21,-0.13,
4410,-0.225,-0.14,
4411,-0.235,-0.14,
4412,-0.23,-0.12,
4413,-0.24,-0.095,
4414,-0.22,-0.085,
4415,-0.23,-0.09,
4416,-0.235,-0.085,
4417,-0.245,-0.085,
4418,-0.23,-0.085,
4419,-0.235,-0.075,
4420,-0.235,-0.075,
4421,-0.245,-0.085,
4422,-0.265,-0.075,
4423,-0.26,-0.065,
4424,-0.25,-0.06,
4425,-0.245,-0.055,
4426,-0.26,-0.065,
4427,-0.275,-0.08,
4428,-0.285,-0.09,
4429,-0.275,-0.09,
4430,-0.26,-0.075,
4431,-0.255,-0.085,
4432,-0.25,-0.075,
4433,-0.25,-0.1,
4434,-0.25,-0.105,
4435,-0.24,-0.095,
4436,-0.24,-0.075,
4437,-0.245,-0.07,
4438,-0.265,-0.08,
4439,-0.275,-0.09,
4440,-0.285,-0.11,
4441,-0.275,-0.085,
4442,-0.265,-0.085,
4443,-0.26,-0.1,
4444,-0.26,-0.105,
4445,-0.26,-0.12,
4446,-0.265,-0.13,
4447,-0.255,-0.12,
4448,-0.25,-0.105,
4449,-0.24,-0.09,
4450,-0.25,-0.105,
4451,-0.25,-0.12,
4452,-0.245,-0.13,
4453,-0.245,-0.11,
4454,-0.235,-0.085,
4455,-0.225,-0.095,
4456,-0.22,-0.095,
4457,-0.235,-0.115,
4458,-0.26,-0.11,
4459,-0.245,-0.085,
4460,-0.235,-0.055,
4461,-0.23,-0.06,
4462,-0.225,-0.065,
4463,-0.23,-0.07,
4464,-0.235,-0.075,
4465,-0.24,-0.07,
4466,-0.225,-0.045,
4467,-0.215,-0.05,
4468,-0.22,-0.055,
4469,-0.22,-0.07,
4470,-0.24,-0.07,
4471,-0.24,-0.08,
4472,-0.25,-0.06,
4473,-0.24,-0.07,
4474,-0.25,-0.08,
4475,-0.245,-0.105,
4476,-0.255,-0.11,
4477,-0.235,-0.1,
4478,-0.24,-0.075,
4479,-0.24,-0.075,
4480,-0.24,-0.085,
4481,-0.235,-0.095,
4482,-0.24,-0.105,
4483,-0.225,-0.085,
4484,-0.215,-0.075,
4485,-0.225,-0.075,
4486,-0.235,-0.1,
4487,-0.245,-0.115,
4488,-0.255,-0.135,
4489,-0.245,-0.115,
4490,-0.23,-0.11,
4491,-0.225,-0.1,
4492,-0.215,-0.105,
4493,-0.235,-0.14,
4494,-0.24,-0.13,
4495,-0.255,-0.125,
4496,-0.245,-0.1,
4497,-0.24,-0.095,
4498,-0.245,-0.105,
4499,-0.24,-0.11,
4500,-0.25,-0.12,
4501,-0.25,-0.115,
4502,-0.24,-0.08,
4503,-0.245,-0.075,
4504,-0.245,-0.08,
4505,-0.24,-0.085,
4506,-0.25,-0.095,
4507,-0.25,-0.075,
4508,-0.25,-0.06,
4509,-0.24,-0.05,
4510,-0.235,-0.055,
4511,-0.24,-0.07,
4512,-0.24,-0.075,
4513,-0.24,-0.07,
4514,-0.235,-0.055,
4515,-0.225,-0.06,
4516,-0.215,-0.07,
4517,-0.24,-0.09,
4518,-0.235,-0.1,
4519,-0.25,-0.085,
4520,-0.245,-0.075,
4521,-0.23,-0.07,
4522,-0.235,-0.065,
4523,-0.235,-0.095,
4524,-0.245,-0.1,
4525,-0.255,-0.09,
4526,-0.24,-0.08,
4527,-0.24,-0.07,
4528,-0.215,-0.08,
4529,-0.225,-0.095,
4530,-0.245,-0.115,
4531,-0.245,-0.12,
4532,-0.235,-0.1,
4533,-0.225,-0.115,
4534,-0.225,-0.115,
4535,-0.235,-0.14,
4536,-0.25,-0.135,
4537,-0.245,-0.12,
4538,-0.24,-0.105,
4539,-0.23,-0.105,
4540,-0.215,-0.105,
4541,-0.225,-0.115,
4542,-0.22,-0.12,
4543,-0.22,-0.11,
4544,-0.21,-0.085,
4545,-0.185,-0.075,
4546,-0.18,-0.075,
4547,-0.19,-0.085,
4548,-0.19,-0.085,
4549,-0.195,-0.07,
4550,-0.195,-0.05,
4551,-0.175,-0.05,
4552,-0.175,-0.08,
4553,-0.155,-0.095,
4554,-0.14,-0.085,
4555,-0.1,-0.055,
4556,-0.06,-0.04,
4557,-0.04,-0.055,
4558,-0.06,-0.07,
4559,-0.08,-0.095,
4560,-0.095,-0.085,
4561,-0.09,-0.09,
4562,-0.085,-0.08,
4563,-0.09,-0.085,
4564,-0.11,-0.1,
4565,-0.125,-0.11,
4566,-0.125,-0.11,
4567,-0.135,-0.095,
4568,-0.135,-0.085,
4569,-0.125,-0.095,
4570,-0.14,-0.095,
4571,-0.16,-0.115,
4572,-0.175,-0.11,
4573,-0.185,-0.11,
4574,-0.205,-0.105,
4575,-0.225,-0.125,
4576,-0.23,-0.13,
4577,-0.23,-0.135,
4578,-0.245,-0.145,
4579,-0.25,-0.115,
4580,-0.255,-0.115,
4581,-0.24,-0.13,
4582,-0.24,-0.125,
4583,-0.245,-0.135,
4584,-0.265,-0.115,
4585,-0.25,-0.115,
4586,-0.25,-0.1,
4587,-0.245,-0.105,
4588,-0.245,-0.1,
4589,-0.27,-0.105,
4590,-0.28,-0.105,
4591,-0.255,-0.075,
4592,-0.27,-0.075,
4593,-0.25,-0.07,
4594,-0.255,-0.09,
4595,-0.26,-0.09,
4596,-0.265,-0.085,
4597,-0.275,-0.065,
4598,-0.29,-0.065,
4599,-0.305,-0.065,
4600,-0.325,-0.08,
4601,-0.33,-0.085,
4602,-0.315,-0.08,
4603,-0.225,-0.06,
4604,-0.045,-0.065,
4605,0.185,-0.075,
4606,0.465,-0.095,
4607,0.795,-0.12,
4608,1.085,-0.15,
4609,1.155,-0.175,N
4610,0.995,-0.225,
4611,0.705,-0.245,
4612,0.395,-0.235,
4613,0.15,-0.195,
4614,0.05,-0.155,
4615,0.055,-0.105,
4616,0.035,-0.09,
4617,0.0,-0.125,
4618,-0.06,-0.125,
4619,-0.115,-0.115,
4620,-0.17,-0.12,
4621,-0.225,-0.12,
4622,-0.255,-0.125,
4623,-0.27,-0.125,
4624,-0.275,-0.125,
4625,-0.305,-0.135,
4626,-0.33,-0.13,
4627,-0.35,-0.125,
4628,-0.345,-0.11,
4629,-0.345,-0.1,
4630,-0.345,-0.095,
4631,-0.345,-0.08,
4632,-0.36,-0.095,
4633,-0.355,-0.09,
4634,-0.36,-0.09,
4635,-0.34,-0.075,
4636,-0.345,-0.06,
4637,-0.35,-0.075,
4638,-0.355,-0.075,
4639,-0.375,-0.09,
4640,-0.365,-0.075,
4641,-0.355,-0.07,
4642,-0.355,-0.065,
4643,-0.36,-0.09,
4644,-0.38,-0.1,
4645,-0.38,-0.105,
4646,-0.345,-0.09,
4647,-0.345,-0.08,
4648,-0.355,-0.09,
4649,-0.36,-0.1,
4650,-0.38,-0.11,
4651,-0.37,-0.105,
4652,-0.355,-0.09,
4653,-0.345,-0.08,
4654,-0.36,-0.09,
4655,-0.365,-0.09,
4656,-0.36,-0.115,
4657,-0.36,-0.12,
4658,-0.355,-0.1,
4659,-0.335,-0.105,
4660,-0.35,-0.11,
4661,-0.365,-0.13,
4662,-0.36,-0.135,
4663,-0.36,-0.125,
4664,-0.34,-0.105,
4665,-0.33,-0.105,
4666,-0.34,-0.12,
4667,-0.35,-0.125,
4668,-0.37,-0.125,
4669,-0.36,-0.115,
4670,-0.34,-0.095,
4671,-0.315,-0.095,
4672,-0.32,-0.08,
4673,-0.335,-0.095,
4674,-0.345,-0.1,
4675,-0.34,-0.08,
4676,-0.32,-0.065,
4677,-0.315,-0.065,
4678,-0.295,-0.065,
4679,-0.305,-0.08,
4680,-0.31,-0.08,
4681,-0.31,-0.065,
4682,-0.295,-0.055,
4683,-0.29,-0.065,
4684,-0.29,-0.08,
4685,-0.285,-0.095,
4686,-0.295,-0.11,
4687,-0.285,-0.09,
4688,-0.285,-0.095,
4689,-0.265,-0.09,
4690,-0.25,-0.09,
4691,-0.23,-0.105,
4692,-0.23,-0.095,
4693,-0.22,-0.075,
4694,-0.21,-0.075,
4695,-0.195,-0.09,
4696,-0.21,-0.11,
4697,-0.2,-0.11,
4698,-0.205,-0.11,
4699,-0.19,-0.115,
4700,-0.175,-0.105,
4701,-0.165,-0.125,
4702,-0.15,-0.13,
4703,-0.145,-0.14,
4704,-0.15,-0.135,
4705,-0.145,-0.145,
4706,-0.13,-0.14,
4707,-0.1,-0.15,
4708,-0.1,-0.145,
4709,-0.105,-0.14,
4710,-0.105,-0.145,
4711,-0.105,-0.14,
4712,-0.1,-0.125,
4713,-0.085,-0.13,
4714,-0.08,-0.13,
4715,-0.09,-0.125,
4716,-0.1,-0.11,
4717,-0.115,-0.1,
4718,-0.11,-0.095,
4719,-0.105,-0.105,
4720,-0.125,-0.1,
4721,-0.14,-0.1,
4722,-0.16,-0.105,
4723,-0.175,-0.1,
4724,-0.17,-0.105,
4725,-0.175,-0.09,
4726,-0.18,-0.085,
4727,-0.18,-0.11,
4728,-0.2,-0.1,
4729,-0.22,-0.095,
4730,-0.225,-0.1,
4731,-0.22,-0.1,
4732,-0.22,-0.1,
4733,-0.22,-0.11,
4734,-0.235,-0.12,
4735,-0.255,-0.115,
4736,-0.255,-0.115,
4737,-0.255,-0.11,
4738,-0.255,-0.105,
4739,-0.26,-0.115,
4740,-0.255,-0.125,
4741,-0.275,-0.115,
4742,-0.29,-0.12,
4743,-0.29,-0.115,
4744,-0.285,-0.125,
4745,-0.28,-0.13,
4746,-0.295,-0.15,
4747,-0.295,-0.14,
4748,-0.285,-0.12,
4749,-0.265,-0.125,
4750,-0.275,-0.115,
4751,-0.275,-0.135,
4752,-0.29,-0.14,
4753,-0.305,-0.135,
4754,-0.3,-0.105,
4755,-0.265,-0.095,
4756,-0.24,-0.085,
4757,-0.26,-0.105,
4758,-0.265,-0.095,
4759,-0.275,-0.105,
4760,-0.26,-0.075,
4761,-0.255,-0.07,
4762,-0.265,-0.065,
4763,-0.26,-0.08,
4764,-0.255,-0.08,
4765,-0.265,-0.085,
4766,-0.26,-0.065,
4767,-0.235,-0.07,
4768,-0.24,-0.08,
4769,-0.245,-0.105,
4770,-0.265,-0.12,
4771,-0.25,-0.105,
4772,-0.245,-0.1,
4773,-0.245,-0.085,
4774,-0.245,-0.105,
4775,-0.245,-0.115,
4776,-0.255,-0.13,
4777,-0.245,-0.115,
4778,-0.235,-0.085,
4779,-0.225,-0.085,
4780,-0.23,-0.09,
4781,-0.24,-0.125,
4782,-0.24,-0.13,
4783,-0.245,-0.125,
4784,-0.24,-0.135,
4785,-0.23,-0.125,
4786,-0.24,-0.14,
4787,-0.235,-0.16,
4788,-0.23,-0.16,
4789,-0.255,-0.14,
4790,-0.255,-0.12,
4791,-0.22,-0.13,
4792,-0.225,-0.14,
4793,-0.235,-0.155,
4794,-0.245,-0.15,
4795,-0.255,-0.125,
4796,-0.265,-0.1,
4797,-0.245,-0.11,
4798,-0.245,-0.11,
4799,-0.245,-0.105,
4800,-0.25,-0.105,
4801,-0.24,-0.095,
4802,-0.245,-0.09,
4803,-0.255,-0.08,
4804,-0.265,-0.09,
4805,-0.25,-0.11,
4806,-0.25,-0.095,
4807,-0.255,-0.085,
4808,-0.245,-0.085,
4809,-0.24,-0.095,
4810,-0.245,-0.1,
4811,-0.245,-0.11,
4812,-0.255,-0.12,
4813,-0.265,-0.11,
4814,-0.24,-0.105,
4815,-0.23,-0.115,
4816,-0.23,-0.115,
4817,-0.245,-0.13,
4818,-0.25,-0.12,
4819,-0.255,-0.115,
4820,-0.25,-0.11,
4821,-0.235,-0.12,
4822,-0.255,-0.11,
4823,-0.26,-0.115,
4824,-0.265,-0.125,
4825,-0.275,-0.12,
4826,-0.265,-0.135,
4827,-0.26,-0.16,
4828,-0.25,-0.135,
4829,-0.255,-0.135,
4830,-0.27,-0.125,
4831,-0.29,-0.14,
4832,-0.265,-0.135,
4833,-0.255,-0.135,
4834,-0.25,-0.15,
4835,-0.27,-0.125,
4836,-0.27,-0.125,
4837,-0.265,-0.125,
4838,-0.245,-0.105,
4839,-0.24,-0.11,
4840,-0.25,-0.095,
4841,-0.265,-0.105,
4842,-0.275,-0.095,
4843,-0.28,-0.08,
4844,-0.265,-0.09,
4845,-0.25,-0.075,
4846,-0.245,-0.085,
4847,-0.245,-0.08,
4848,-0.265,-0.075,
4849,-0.27,-0.08,
4850,-0.255,-0.085,
4851,-0.245,-0.08,
4852,-0.25,-0.095,
4853,-0.26,-0.085,
4854,-0.28,-0.085,
4855,-0.285,-0.09,
4856,-0.275,-0.09,
4857,-0.265,-0.105,
4858,-0.27,-0.105,
4859,-0.265,-0.105,
4860,-0.285,-0.1,
4861,-0.265,-0.095,
4862,-0.24,-0.075,
4863,-0.245,-0.09,
4864,-0.26,-0.08,
4865,-0.275,-0.095,
4866,-0.275,-0.1,
4867,-0.28,-0.11,
4868,-0.265,-0.115,
4869,-0.255,-0.12,
4870,-0.255,-0.12,
4871,-0.24,-0.13,
4872,-0.22,-0.12,
4873,-0.19,-0.105,
4874,-0.14,-0.1,
4875,-0.1,-0.11,
4876,-0.105,-0.12,
4877,-0.12,-0.13,
4878,-0.145,-0.12,
4879,-0.16,-0.115,
4880,-0.155,-0.1,
4881,-0.16,-0.11,
4882,-0.185,-0.105,
4883,-0.19,-0.12,
4884,-0.2,-0.11,
4885,-0.21,-0.09,
4886,-0.195,-0.095,
4887,-0.18,-0.09,
4888,-0.185,-0.09,
4889,-0.195,-0.085,
4890,-0.22,-0.08,
4891,-0.25,-0.075,
4892,-0.265,-0.07,
4893,-0.26,-0.075,
4894,-0.285,-0.075,
4895,-0.3,-0.07,
4896,-0.32,-0.075,
4897,-0.33,-0.085,
4898,-0.32,-0.085,
4899,-0.305,-0.1,
4900,-0.305,-0.1,
4901,-0.305,-0.1,
4902,-0.315,-0.1,
4903,-0.325,-0.095,
4904,-0.335,-0.09,
4905,-0.335,-0.09,
4906,-0.33,-0.09,
4907,-0.34,-0.09,
4908,-0.34,-0.1,
4909,-0.36,-0.085,
4910,-0.345,-0.09,
4911,-0.345,-0.105,
4912,-0.34,-0.09,
4913,-0.355,-0.11,
4914,-0.35,-0.115,
4915,-0.355,-0.12,
4916,-0.355,-0.12,
4917,-0.36,-0.11,
4918,-0.385,-0.105,
4919,-0.385,-0.105,
4920,-0.395,-0.1,
4921,-0.355,-0.105,
4922,-0.255,-0.09,
4923,-0.075,-0.105,
4924,0.105,-0.09,
4925,0.335,-0.1,
4926,0.635,-0.13,
4927,0.895,-0.15,
4928,0.95,-0.19,N
4929,0.755,-0.22,
4930,0.43,-0.235,
4931,0.15,-0.215,
4932,-0.045,-0.18,
4933,-0.16,-0.115,
4934,-0.185,-0.075,
4935,-0.185,-0.045,
4936,-0.225,-0.055,
4937,-0.24,-0.065,
4938,-0.255,-0.07,
4939,-0.305,-0.07,
4940,-0.32,-0.07,
4941,-0.36,-0.07,
4942,-0.4,-0.065,
4943,-0.42,-0.075,
4944,-0.435,-0.095,
4945,-0.44,-0.09,
4946,-0.445,-0.08,
4947,-0.445,-0.075,
4948,-0.455,-0.065,
4949,-0.485,-0.08,
4950,-0.505,-0.1,
4951,-0.5,-0.095,
4952,-0.47,-0.09,
4953,-0.465,-0.08,
4954,-0.46,-0.065,
4955,-0.48,-0.08,
4956,-0.48,-0.105,
4957,-0.475,-0.115,
4958,-0.465,-0.1,
4959,-0.46,-0.09,
4960,-0.475,-0.095,
4961,-0.49,-0.115,
4962,-0.505,-0.125,
4963,-0.505,-0.11,
4964,-0.495,-0.095,
4965,-0.48,-0.095,
4966,-0.475,-0.09,
4967,-0.51,-0.105,
4968,-0.53,-0.105,
4969,-0.52,-0.085,
4970,-0.505,-0.07,
4971,-0.5,-0.05,
4972,-0.5,-0.06,
4973,-0.51,-0.07,
4974,-0.52,-0.08,
4975,-0.515,-0.06,
4976,-0.52,-0.045,
4977,-0.535,-0.04,
4978,-0.525,-0.06,
4979,-0.52,-0.075,
4980,-0.52,-0.085,
4981,-0.525,-0.065,
4982,-0.505,-0.05,
4983,-0.485,-0.055,
4984,-0.51,-0.075,
4985,-0.55,-0.09,
4986,-0.565,-0.095,
4987,-0.55,-0.075,
4988,-0.525,-0.06,
4989,-0.5,-0.08,
4990,-0.515,-0.085,
4991,-0.525,-0.085,
4992,-0.525,-0.075,
4993,-0.52,-0.065,
4994,-0.505,-0.06,
4995,-0.48,-0.08,
4996,-0.48,-0.09,
4997,-0.495,-0.105,
4998,-0.505,-0.105,
4999,-0.5,-0.095,
5000,-0.49,-0.09,
5001,-0.475,-0.095,
5002,-0.485,-0.105,
5003,-0.5,-0.115,
5004,-0.505,-0.105,
5005,-0.485,-0.1,
5006,-0.48,-0.095,
5007,-0.47,-0.1,
5008,-0.46,-0.095,
5009,-0.46,-0.1,
5010,-0.46,-0.09,
5011,-0.45,-0.065,
5012,-0.435,-0.06,
5013,-0.425,-0.05,
5014,-0.42,-0.05,
5015,-0.405,-0.055,
5016,-0.405,-0.055,
5017,-0.385,-0.045,
5018,-0.365,-0.04,
5019,-0.355,-0.05,
5020,-0.36,-0.055,
5021,-0.36,-0.06,
5022,-0.365,-0.065,
5023,-0.365,-0.065,
5024,-0.345,-0.055,
5025,-0.32,-0.07,
5026,-0.315,-0.065,
5027,-0.33,-0.085,
5028,-0.335,-0.085,
5029,-0.35,-0.08,
5030,-0.335,-0.08,
5031,-0.305,-0.08,
5032,-0.295,-0.095,
5033,-0.295,-0.085,
5034,-0.31,-0.09,
5035,-0.31,-0.08,
5036,-0.32,-0.09,
5037,-0.32,-0.095,
5038,-0.345,-0.09,
5039,-0.345,-0.1,
5040,-0.365,-0.115,
5041,-0.37,-0.11,
5042,-0.37,-0.105,
5043,-0.375,-0.1,
5044,-0.38,-0.105,
5045,-0.39,-0.11,
5046,-0.4,-0.11,
5047,-0.425,-0.105,
5048,-0.425,-0.11,
5049,-0.42,-0.105,
5050,-0.43,-0.08,
5051,-0.435,-0.085,
5052,-0.435,-0.07,
5053,-0.445,-0.06,
5054,-0.445,-0.05,
5055,-0.45,-0.04,
5056,-0.455,-0.035,
5057,-0.465,-0.04,
5058,-0.48,-0.05,
5059,-0.485,-0.045,
5060,-0.485,-0.025,
5061,-0.47,-0.01,
5062,-0.465,-0.015,
5063,-0.475,-0.025,
5064,-0.485,-0.05,
5065,-0.485,-0.04,
5066,-0.475,-0.035,
5067,-0.47,-0.03,
5068,-0.475,-0.025,
5069,-0.465,-0.06,
5070,-0.485,-0.065,
5071,-0.485,-0.06,
5072,-0.47,-0.04,
5073,-0.455,-0.04,
5074,-0.46,-0.03,
5075,-0.465,-0.04,
5076,-0.465,-0.06,
5077,-0.475,-0.055,
5078,-0.46,-0.04,
5079,-0.44,-0.035,
5080,-0.435,-0.045,
5081,-0.45,-0.07,
5082,-0.45,-0.1,
5083,-0.44,-0.09,
5084,-0.45,-0.065,
5085,-0.435,-0.07,
5086,-0.455,-0.075,
5087,-0.44,-0.09,
5088,-0.445,-0.075,
5089,-0.44,-0.065,
5090,-0.425,-0.045,
5091,-0.42,-0.05,
5092,-0.415,-0.055,
5093,-0.42,-0.06,
5094,-0.415,-0.06,
5095,-0.405,-0.035,
5096,-0.4,-0.015,
5097,-0.395,-0.02,
5098,-0.39,-0.025,
5099,-0.405,-0.03,
5100,-0.405,-0.025,
5101,-0.4,-0.015,
5102,-0.38,0.0,
5103,-0.37,0.0,
5104,-0.385,-0.005,
5105,-0.37,-0.025,
5106,-0.375,-0.025,
5107,-0.375,-0.02,
5108,-0.365,-0.02,
5109,-0.35,-0.025,
5110,-0.355,-0.035,
5111,-0.345,-0.03,
5112,-0.36,-0.04,
5113,-0.365,-0.04,
5114,-0.36,-0.03,
5115,-0.34,-0.035,
5116,-0.345,-0.04,
5117,-0.34,-0.035,
5118,-0.345,-0.035,
5119,-0.36,-0.04,
5120,-0.35,-0.03,
5121,-0.345,-0.05,
5122,-0.345,-0.055,
5123,-0.335,-0.06,
5124,-0.35,-0.05,
5125,-0.355,-0.065,
5126,-0.335,-0.06,
5127,-0.335,-0.05,
5128,-0.325,-0.05,
5129,-0.32,-0.07,
5130,-0.33,-0.055,
5131,-0.325,-0.045,
5132,-0.315,-0.04,
5133,-0.305,-0.04,
5134,-0.31,-0.05,
5135,-0.31,-0.045,
5136,-0.34,-0.02,
5137,-0.35,-0.015,
5138,-0.325,-0.015,
5139,-0.315,-0.015,
5140,-0.315,-0.015,
5141,-0.34,-0.01,
5142,-0.33,-0.01,
5143,-0.33,0.0,
5144,-0.31,0.005,
5145,-0.31,0.0,
5146,-0.315,0.0,
5147,-0.33,-0.005,
5148,-0.325,0.005,
5149,-0.315,0.01,
5150,-0.3,0.01,
5151,-0.3,-0.01,
5152,-0.29,-0.02,
5153,-0.305,-0.015,
5154,-0.32,-0.025,
5155,-0.32,-0.01,
5156,-0.3,-0.01,
5157,-0.28,-0.025,
5158,-0.285,-0.025,
5159,-0.295,-0.025,
5160,-0.295,-0.02,
5161,-0.285,-0.02,
5162,-0.285,-0.025,
5163,-0.275,-0.02,
5164,-0.285,-0.025,
5165,-0.295,-0.045,
5166,-0.29,-0.045,
5167,-0.295,-0.045,
5168,-0.275,-0.04,
5169,-0.265,-0.045,
5170,-0.265,-0.04,
5171,-0.26,-0.045,
5172,-0.28,-0.04,
5173,-0.265,-0.03,
5174,-0.26,-0.03,
5175,-0.25,-0.035,
5176,-0.24,-0.045,
5177,-0.24,-0.035,
5178,-0.255,-0.035,
5179,-0.26,-0.025,
5180,-0.245,0.0,
5181,-0.22,0.0,
5182,-0.185,-0.015,
5183,-0.165,0.0,
5184,-0.125,0.005,
5185,-0.11,0.015,
5186,-0.09,0.02,
5187,-0.095,0.02,
5188,-0.115,0.015,
5189,-0.12,0.02,
5190,-0.125,0.02,
5191,-0.125,0.025,
5192,-0.13,0.025,
5193,-0.13,0.015,
5194,-0.145,0.01,
5195,-0.16,-0.005,
5196,-0.175,-0.005,
5197,-0.185,-0.005,
5198,-0.17,-0.005,
5199,-0.145,-0.01,
5200,-0.16,-0.015,
5201,-0.18,-0.01,
5202,-0.205,-0.025,
5203,-0.225,0.005,
5204,-0.225,-0.005,
5205,-0.22,-0.01,
5206,-0.23,-0.015,
5207,-0.225,-0.02,
5208,-0.25,-0.015,
5209,-0.265,-0.01,
5210,-0.255,-0.02,
5211,-0.245,-0.03,
5212,-0.255,-0.045,
5213,-0.265,-0.035,
5214,-0.275,-0.05,
5215,-0.255,-0.04,
5216,-0.255,-0.03,
5217,-0.24,-0.04,
5218,-0.24,-0.03,
5219,-0.255,-0.04,
5220,-0.275,-0.035,
5221,-0.27,-0.035,
5222,-0.26,-0.025,
5223,-0.24,-0.025,
5224,-0.25,-0.025,
5225,-0.26,-0.02,
5226,-0.265,-0.01,
5227,-0.255,0.0,
5228,-0.255,0.02,
5229,-0.285,0.015,
5230,-0.32,0.01,
5231,-0.35,-0.005,
5232,-0.365,0.025,
5233,-0.32,0.025,
5234,-0.195,0.035,
5235,-0.015,0.035,
5236,0.22,0.02,
5237,0.49,0.015,
5238,0.81,-0.005,
5239,1.1,-0.025,
5240,1.25,-0.045,
5241,1.155,-0.085,N
5242,0.89,-0.115,
5243,0.605,-0.15,
5244,0.345,-0.13,
5245,0.13,-0.08,
5246,0.045,-0.015,
5247,0.04,0.0,
5248,0.01,-0.01,
5249,-0.04,-0.015,
5250,-0.085,-0.025,
5251,-0.095,0.0,
5252,-0.115,0.005,
5253,-0.15,-0.005,
5254,-0.19,-0.025,
5255,-0.22,-0.035,
5256,-0.25,-0.04,
5257,-0.27,-0.03,
5258,-0.26,-0.02,
5259,-0.26,-0.015,
5260,-0.285,-0.04,
5261,-0.3,-0.045,
5262,-0.33,-0.035,
5263,-0.34,-0.035,
5264,-0.325,-0.025,
5265,-0.31,-0.03,
5266,-0.33,-0.03,
5267,-0.325,-0.03,
5268,-0.34,-0.025,
5269,-0.33,0.0,
5270,-0.325,0.0,
5271,-0.32,-0.005,
5272,-0.32,0.01,
5273,-0.325,0.015,
5274,-0.325,0.005,
5275,-0.325,0.02,
5276,-0.315,0.03,
5277,-0.32,0.015,
5278,-0.325,0.025,
5279,-0.32,0.015,
5280,-0.335,0.02,
5281,-0.335,0.03,
5282,-0.33,0.03,
5283,-0.32,0.015,
5284,-0.315,0.01,
5285,-0.33,0.005,
5286,-0.335,0.0,
5287,-0.345,0.005,
5288,-0.32,0.0,
5289,-0.305,0.0,
5290,-0.32,-0.005,
5291,-0.33,-0.005,
5292,-0.34,-0.005,
5293,-0.335,0.005,
5294,-0.335,0.0,
5295,-0.31,0.0,
5296,-0.31,0.01,
5297,-0.32,-0.005,
5298,-0.335,-0.015,
5299,-0.33,-0.025,
5300,-0.315,-0.02,
5301,-0.305,-0.02,
5302,-0.3,-0.015,
5303,-0.305,-0.025,
5304,-0.315,-0.03,
5305,-0.315,-0.025,
5306,-0.31,-0.02,
5307,-0.295,-0.02,
5308,-0.28,-0.015,
5309,-0.28,-0.01,
5310,-0.29,-0.03,
5311,-0.285,-0.02,
5312,-0.265,-0.025,
5313,-0.255,-0.005,
5314,-0.26,0.0,
5315,-0.26,0.01,
5316,-0.265,0.01,
5317,-0.26,0.005,
5318,-0.245,0.02,
5319,-0.23,0.015,
5320,-0.23,0.025,
5321,-0.235,0.025,
5322,-0.225,0.02,
5323,-0.215,0.01,
5324,-0.195,0.015,
5325,-0.165,0.025,
5326,-0.17,0.02,
5327,-0.18,0.005,
5328,-0.19,0.0,
5329,-0.2,0.005,
5330,-0.18,0.005,
5331,-0.14,0.01,
5332,-0.12,0.015,
5333,-0.11,-0.005,
5334,-0.115,-0.01,
5335,-0.115,-0.02,
5336,-0.095,-0.005,
5337,-0.085,0.01,
5338,-0.08,0.005,
5339,-0.07,-0.005,
5340,-0.065,-0.015,
5341,-0.07,-0.035,
5342,-0.07,-0.04,
5343,-0.07,-0.02,
5344,-0.065,-0.035,
5345,-0.07,-0.055,
5346,-0.06,-0.06,
5347,-0.05,-0.065,
5348,-0.04,-0.06,
5349,-0.04,-0.04,
5350,-0.07,-0.035,
5351,-0.075,-0.05,
5352,-0.08,-0.05,
5353,-0.07,-0.05,
5354,-0.075,-0.025,
5355,-0.09,-0.02,
5356,-0.125,-0.005,
5357,-0.14,-0.01,
5358,-0.16,-0.015,
5359,-0.18,-0.005,
5360,-0.17,0.015,
5361,-0.17,0.025,
5362,-0.165,0.03,
5363,-0.185,0.015,
5364,-0.2,0.01,
5365,-0.21,0.015,
5366,-0.205,0.03,
5367,-0.21,0.03,
5368,-0.22,0.035,
5369,-0.225,0.025,
5370,-0.235,0.01,
5371,-0.245,-0.005,
5372,-0.245,0.015,
5373,-0.25,0.02,
5374,-0.245,0.02,
5375,-0.255,0.0,
5376,-0.27,-0.01,
5377,-0.275,-0.015,
5378,-0.265,0.01,
5379,-0.255,0.025,
5380,-0.265,0.025,
5381,-0.27,0.01,
5382,-0.28,0.0,
5383,-0.295,-0.01,
5384,-0.28,-0.01,
5385,-0.275,0.0,
5386,-0.275,-0.01,
5387,-0.27,-0.01,
5388,-0.27,-0.025,
5389,-0.285,-0.025,
5390,-0.27,-0.015,
5391,-0.26,-0.02,
5392,-0.265,0.0,
5393,-0.275,-0.005,
5394,-0.285,-0.015,
5395,-0.275,-0.035,
5396,-0.25,-0.015,
5397,-0.245,-0.005,
5398,-0.245,0.005,
5399,-0.25,0.0,
5400,-0.26,0.0,
5401,-0.27,0.0,
5402,-0.26,0.01,
5403,-0.25,0.025,
5404,-0.26,0.035,
5405,-0.265,0.035,
5406,-0.27,0.03,
5407,-0.26,0.015,
5408,-0.255,0.025,
5409,-0.25,0.045,
5410,-0.255,0.035,
5411,-0.26,0.03,
5412,-0.26,0.015,
5413,-0.255,0.015,
5414,-0.235,0.02,
5415,-0.235,0.02,
5416,-0.235,0.02,
5417,-0.24,0.02,
5418,-0.245,0.0,
5419,-0.265,0.0,
5420,-0.245,-0.005,
5421,-0.245,0.005,
5422,-0.235,0.01,
5423,-0.24,0.005,
5424,-0.245,0.0,
5425,-0.265,0.005,
5426,-0.25,0.01,
5427,-0.24,0.005,
5428,-0.25,0.005,
5429,-0.24,0.0,
5430,-0.24,-0.01,
5431,-0.24,-0.005,
5432,-0.225,-0.01,
5433,-0.215,-0.025,
5434,-0.215,-0.015,
5435,-0.225,-0.025,
5436,-0.24,-0.025,
5437,-0.255,-0.02,
5438,-0.23,-0.015,
5439,-0.21,-0.01,
5440,-0.21,-0.01,
5441,-0.23,-0.02,
5442,-0.245,-0.02,
5443,-0.24,-0.005,
5444,-0.235,0.0,
5445,-0.22,-0.005,
5446,-0.225,-0.01,
5447,-0.23,0.0,
5448,-0.245,-0.005,
5449,-0.26,0.02,
5450,-0.245,0.025,
5451,-0.24,0.025,
5452,-0.235,0.015,
5453,-0.24,0.015,
5454,-0.245,0.02,
5455,-0.24,0.035,
5456,-0.23,0.05,
5457,-0.225,0.04,
5458,-0.22,0.03,
5459,-0.23,0.015,
5460,-0.255,0.015,
5461,-0.24,0.03,
5462,-0.23,0.03,
5463,-0.22,0.015,
5464,-0.24,0.005,
5465,-0.25,-0.005,
5466,-0.245,0.005,
5467,-0.255,0.01,
5468,-0.25,0.025,
5469,-0.24,0.02,
5470,-0.235,0.01,
5471,-0.245,0.005,
5472,-0.245,0.0,
5473,-0.25,0.02,
5474,-0.245,0.02,
5475,-0.23,0.005,
5476,-0.24,-0.01,
5477,-0.245,-0.025,
5478,-0.25,-0.04,
5479,-0.255,-0.02,
5480,-0.245,0.0,
5481,-0.215,-0.005,
5482,-0.23,-0.005,
5483,-0.235,-0.03,
5484,-0.25,-0.03,
5485,-0.245,-0.01,
5486,-0.24,0.0,
5487,-0.23,0.0,
5488,-0.235,-0.02,
5489,-0.25,-0.03,
5490,-0.275,-0.02,
5491,-0.27,0.005,
5492,-0.265,0.025,
5493,-0.235,0.03,
5494,-0.24,0.025,
5495,-0.245,0.015,
5496,-0.245,0.02,
5497,-0.235,0.015,
5498,-0.23,0.025,
5499,-0.225,0.03,
5500,-0.23,0.025,
5501,-0.25,0.03,
5502,-0.24,0.03,
5503,-0.235,0.03,
5504,-0.23,0.035,
5505,-0.235,0.04,
5506,-0.225,0.02,
5507,-0.225,0.015,
5508,-0.225,-0.005,
5509,-0.205,0.005,
5510,-0.165,0.025,
5511,-0.115,0.025,
5512,-0.09,0.01,
5513,-0.085,0.0,
5514,-0.1,0.0,
5515,-0.125,-0.005,
5516,-0.125,0.015,
5517,-0.12,0.015,
5518,-0.12,0.005,
5519,-0.13,-0.025,
5520,-0.15,-0.035,
5521,-0.16,-0.035,
5522,-0.155,-0.03,
5523,-0.15,-0.025,
5524,-0.155,-0.025,
5525,-0.16,-0.04,
5526,-0.175,-0.04,
5527,-0.195,-0.045,
5528,-0.19,-0.02,
5529,-0.185,-0.015,
5530,-0.19,-0.02,
5531,-0.225,-0.045,
5532,-0.25,-0.05,
5533,-0.26,-0.035,
5534,-0.26,-0.03,
5535,-0.255,-0.01,
5536,-0.265,-0.01,
5537,-0.26,-0.02,
5538,-0.265,-0.02,
5539,-0.27,-0.01,
5540,-0.275,0.01,
5541,-0.28,0.015,
5542,-0.285,0.025,
5543,-0.285,0.0,
5544,-0.29,-0.015,
5545,-0.295,0.0,
5546,-0.285,0.015,
5547,-0.28,0.025,
5548,-0.285,0.015,
5549,-0.285,0.01,
5550,-0.3,-0.015,
5551,-0.315,-0.015,
5552,-0.3,-0.01,
5553,-0.28,0.01,
5554,-0.28,0.01,
5555,-0.305,-0.015,
5556,-0.325,-0.03,
5557,-0.36,-0.02,
5558,-0.385,-0.01,
5559,-0.4,0.01,
5560,-0.405,0.01,
5561,-0.34,-0.015,
5562,-0.21,-0.02,
5563,-0.015,-0.025,
5564,0.23,0.005,
5565,0.495,-0.005,
5566,0.81,-0.04,
5567,1.07,-0.065,
5568,1.18,-0.115,
5569,1.04,-0.165,N
5570,0.775,-0.175,
5571,0.505,-0.16,
5572,0.265,-0.15,
5573,0.075,-0.115,
5574,0.01,-0.1,
5575,0.0,-0.065,
5576,-0.025,-0.04,
5577,-0.06,-0.045,
5578,-0.1,-0.04,
5579,-0.12,-0.04,
5580,-0.165,-0.045,
5581,-0.225,-0.035,
5582,-0.265,-0.015,
5583,-0.29,-0.01,
5584,-0.325,-0.005,
5585,-0.36,0.0,
5586,-0.375,-0.025,
5587,-0.375,-0.015,
5588,-0.385,-0.005,
5589,-0.385,0.015,
5590,-0.39,0.01,
5591,-0.39,0.01,
5592,-0.405,0.0,
5593,-0.415,0.0,
5594,-0.42,-0.01,
5595,-0.4,0.005,
5596,-0.395,0.01,
5597,-0.41,0.0,
5598,-0.41,-0.02,
5599,-0.42,-0.02,
5600,-0.41,-0.015,
5601,-0.4,-0.02,
5602,-0.395,-0.005,
5603,-0.42,-0.01,
5604,-0.42,-0.03,
5605,-0.42,-0.025,
5606,-0.395,-0.025,
5607,-0.4,-0.015,
5608,-0.39,-0.015,
5609,-0.4,-0.03,
5610,-0.41,-0.03,
5611,-0.4,-0.04,
5612,-0.39,-0.045,
5613,-0.38,-0.05,
5614,-0.37,-0.06,
5615,-0.39,-0.05,
5616,-0.405,-0.045,
5617,-0.41,-0.06,
5618,-0.415,-0.065,
5619,-0.395,-0.065,
5620,-0.4,-0.07,
5621,-0.41,-0.065,
5622,-0.395,-0.06,
5623,-0.41,-0.05,
5624,-0.4,-0.06,
5625,-0.405,-0.05,
5626,-0.405,-0.04,
5627,-0.405,-0.04,
5628,-0.405,-0.045,
5629,-0.405,-0.045,
5630,-0.39,-0.02,
5631,-0.365,-0.005,
5632,-0.365,-0.01,
5633,-0.38,-0.015,
5634,-0.37,-0.015,
5635,-0.39,-0.03,
5636,-0.4,-0.005,
5637,-0.37,0.0,
5638,-0.375,0.0,
5639,-0.37,-0.015,
5640,-0.365,-0.025,
5641,-0.37,-0.04,
5642,-0.37,-0.03,
5643,-0.37,-0.035,
5644,-0.34,-0.02,
5645,-0.345,-0.035,
5646,-0.34,-0.04,
5647,-0.335,-0.055,
5648,-0.32,-0.04,
5649,-0.31,-0.03,
5650,-0.305,-0.025,
5651,-0.295,-0.035,
5652,-0.295,-0.055,
5653,-0.29,-0.045,
5654,-0.285,-0.045,
5655,-0.27,-0.055,
5656,-0.255,-0.04,
5657,-0.26,-0.055,
5658,-0.26,-0.08,
5659,-0.26,-0.085,
5660,-0.25,-0.065,
5661,-0.235,-0.055,
5662,-0.225,-0.055,
5663,-0.225,-0.075,
5664,-0.21,-0.085,
5665,-0.195,-0.09,
5666,-0.17,-0.075,
5667,-0.155,-0.075,
5668,-0.15,-0.065,
5669,-0.15,-0.07,
5670,-0.16,-0.085,
5671,-0.155,-0.06,
5672,-0.145,-0.045,
5673,-0.14,-0.025,
5674,-0.125,-0.035,
5675,-0.125,-0.04,
5676,-0.125,-0.065,
5677,-0.125,-0.055,
5678,-0.13,-0.035,
5679,-0.125,-0.025,
5680,-0.11,-0.03,
5681,-0.12,-0.055,
5682,-0.145,-0.065,
5683,-0.16,-0.06,
5684,-0.145,-0.055,
5685,-0.16,-0.04,
5686,-0.165,-0.045,
5687,-0.195,-0.065,
5688,-0.205,-0.07,
5689,-0.22,-0.07,
5690,-0.22,-0.05,
5691,-0.23,-0.04,
5692,-0.225,-0.045,
5693,-0.235,-0.06,
5694,-0.255,-0.065,
5695,-0.27,-0.06,
5696,-0.285,-0.035,
5697,-0.265,-0.035,
5698,-0.285,-0.05,
5699,-0.3,-0.075,
5700,-0.315,-0.1,
5701,-0.31,-0.085,
5702,-0.31,-0.075,
5703,-0.305,-0.055,
5704,-0.31,-0.07,
5705,-0.31,-0.08,
5706,-0.33,-0.085,
5707,-0.345,-0.085,
5708,-0.33,-0.06,
5709,-0.325,-0.055,
5710,-0.33,-0.075,
5711,-0.325,-0.08,
5712,-0.33,-0.085,
5713,-0.325,-0.065,
5714,-0.32,-0.035,
5715,-0.315,-0.03,
5716,-0.31,-0.03,
5717,-0.325,-0.035,
5718,-0.325,-0.045,
5719,-0.33,-0.045,
5720,-0.31,-0.025,
5721,-0.31,0.0,
5722,-0.31,-0.005,
5723,-0.33,-0.02,
5724,-0.33,-0.045,
5725,-0.335,-0.04,
5726,-0.33,-0.03,
5727,-0.315,-0.03,
5728,-0.32,-0.025,
5729,-0.325,-0.04,
5730,-0.335,-0.06,
5731,-0.335,-0.075,
5732,-0.32,-0.055,
5733,-0.315,-0.035,
5734,-0.305,-0.03,
5735,-0.315,-0.04,
5736,-0.32,-0.07,
5737,-0.33,-0.065,
5738,-0.33,-0.055,
5739,-0.31,-0.04,
5740,-0.3,-0.035,
5741,-0.305,-0.06,
5742,-0.32,-0.075,
5743,-0.32,-0.08,
5744,-0.31,-0.07,
5745,-0.29,-0.065,
5746,-0.285,-0.065,
5747,-0.295,-0.08,
5748,-0.315,-0.105,
5749,-0.325,-0.095,
5750,-0.32,-0.08,
5751,-0.305,-0.08,
5752,-0.305,-0.07,
5753,-0.31,-0.09,
5754,-0.32,-0.1,
5755,-0.315,-0.095,
5756,-0.32,-0.085,
5757,-0.3,-0.065,
5758,-0.285,-0.065,
5759,-0.295,-0.045,
5760,-0.31,-0.075,
5761,-0.325,-0.06,
5762,-0.32,-0.045,
5763,-0.305,-0.04,
5764,-0.295,-0.03,
5765,-0.295,-0.03,
5766,-0.305,-0.055,
5767,-0.31,-0.065,
5768,-0.31,-0.05,
5769,-0.305,-0.035,
5770,-0.315,-0.025,
5771,-0.33,-0.035,
5772,-0.33,-0.055,
5773,-0.32,-0.07,
5774,-0.305,-0.05,
5775,-0.31,-0.035,
5776,-0.305,-0.04,
5777,-0.315,-0.055,
5778,-0.34,-0.07,
5779,-0.345,-0.08,
5780,-0.31,-0.065,
5781,-0.31,-0.06,
5782,-0.31,-0.04,
5783,-0.31,-0.045,
5784,-0.32,-0.07,
5785,-0.33,-0.08,
5786,-0.315,-0.065,
5787,-0.315,-0.06,
5788,-0.31,-0.065,
5789,-0.325,-0.08,
5790,-0.32,-0.105,
5791,-0.33,-0.1,
5792,-0.34,-0.08,
5793,-0.33,-0.085,
5794,-0.325,-0.085,
5795,-0.33,-0.095,
5796,-0.335,-0.105,
5797,-0.345,-0.11,
5798,-0.33,-0.09,
5799,-0.325,-0.09,
5800,-0.335,-0.08,
5801,-0.32,-0.085,
5802,-0.345,-0.085,
5803,-0.34,-0.075,
5804,-0.325,-0.075,
5805,-0.305,-0.075,
5806,-0.31,-0.055,
5807,-0.32,-0.065,
5808,-0.335,-0.055,
5809,-0.345,-0.06,
5810,-0.34,-0.05,
5811,-0.335,-0.035,
5812,-0.31,-0.035,
5813,-0.32,-0.035,
5814,-0.335,-0.06,
5815,-0.345,-0.05,
5816,-0.34,-0.045,
5817,-0.32,-0.03,
5818,-0.315,-0.045,
5819,-0.32,-0.055,
5820,-0.32,-0.065,
5821,-0.33,-0.065,
5822,-0.315,-0.06,
5823,-0.31,-0.07,
5824,-0.3,-0.065,
5825,-0.305,-0.08,
5826,-0.305,-0.075,
5827,-0.305,-0.07,
5828,-0.29,-0.06,
5829,-0.27,-0.08,
5830,-0.27,-0.065,
5831,-0.28,-0.065,
5832,-0.275,-0.075,
5833,-0.28,-0.08,
5834,-0.255,-0.08,
5835,-0.245,-0.08,
5836,-0.24,-0.095,
5837,-0.235,-0.1,
5838,-0.2,-0.095,
5839,-0.185,-0.095,
5840,-0.145,-0.085,
5841,-0.11,-0.075,
5842,-0.105,-0.09,
5843,-0.115,-0.09,
5844,-0.14,-0.1,
5845,-0.175,-0.095,
5846,-0.185,-0.09,
5847,-0.175,-0.08,
5848,-0.18,-0.1,
5849,-0.195,-0.095,
5850,-0.215,-0.09,
5851,-0.22,-0.07,
5852,-0.22,-0.065,
5853,-0.215,-0.065,
5854,-0.22,-0.07,
5855,-0.235,-0.075,
5856,-0.25,-0.07,
5857,-0.265,-0.07,
5858,-0.265,-0.05,
5859,-0.265,-0.055,
5860,-0.275,-0.065,
5861,-0.325,-0.07,
5862,-0.355,-0.075,
5863,-0.355,-0.07,
5864,-0.345,-0.07,
5865,-0.32,-0.06,
5866,-0.33,-0.07,
5867,-0.365,-0.1,
5868,-0.385,-0.105,
5869,-0.385,-0.105,
5870,-0.37,-0.075,
5871,-0.365,-0.085,
5872,-0.36,-0.09,
5873,-0.365,-0.115,
5874,-0.37,-0.13,
5875,-0.385,-0.105,
5876,-0.385,-0.09,
5877,-0.395,-0.08,
5878,-0.405,-0.09,
5879,-0.41,-0.115,
5880,-0.4,-0.125,
5881,-0.395,-0.12,
5882,-0.405,-0.115,
5883,-0.395,-0.105,
5884,-0.405,-0.105,
5885,-0.435,-0.135,
5886,-0.44,-0.14,
5887,-0.435,-0.14,
5888,-0.435,-0.11,
5889,-0.425,-0.1,
5890,-0.43,-0.105,
5891,-0.405,-0.1,
5892,-0.285,-0.125,
5893,-0.11,-0.12,
5894,0.075,-0.105,
5895,0.315,-0.095,
5896,0.62,-0.1,
5897,0.865,-0.135,
5898,0.94,-0.2,N
5899,0.785,-0.225,
5900,0.54,-0.235,
5901,0.3,-0.215,
5902,0.09,-0.185,
5903,-0.1,-0.155,
5904,-0.18,-0.125,
5905,-0.175,-0.085,
5906,-0.18,-0.055,
5907,-0.21,-0.05,
5908,-0.235,-0.05,
5909,-0.275,-0.065,
5910,-0.32,-0.085,
5911,-0.37,-0.095,
5912,-0.4,-0.09,
5913,-0.43,-0.09,
5914,-0.475,-0.09,
5915,-0.5,-0.1,
5916,-0.53,-0.1,
5917,-0.535,-0.11,
5918,-0.515,-0.1,
5919,-0.505,-0.1,
5920,-0.515,-0.105,
5921,-0.535,-0.11,
5922,-0.56,-0.105,
5923,-0.55,-0.095,
5924,-0.535,-0.095,
5925,-0.515,-0.095,
5926,-0.53,-0.1,
5927,-0.545,-0.11,
5928,-0.555,-0.135,
5929,-0.555,-0.125,
5930,-0.54,-0.135,
5931,-0.545,-0.135,
5932,-0.535,-0.13,
5933,-0.535,-0.13,
5934,-0.54,-0.135,
5935,-0.555,-0.14,
5936,-0.54,-0.14,
5937,-0.54,-0.135,
5938,-0.52,-0.13,
5939,-0.525,-0.125,
5940,-0.55,-0.135,
5941,-0.555,-0.12,
5942,-0.55,-0.12,
5943,-0.53,-0.105,
5944,-0.52,-0.1,
5945,-0.505,-0.085,
5946,-0.52,-0.095,
5947,-0.55,-0.095,
5948,-0.56,-0.09,
5949,-0.545,-0.09,
5950,-0.53,-0.08,
5951,-0.535,-0.07,
5952,-0.535,-0.08,
5953,-0.55,-0.1,
5954,-0.555,-0.085,
5955,-0.54,-0.08,
5956,-0.54,-0.095,
5957,-0.54,-0.095,
5958,-0.545,-0.115,
5959,-0.55,-0.105,
5960,-0.535,-0.11,
5961,-0.53,-0.1,
5962,-0.525,-0.105,
5963,-0.505,-0.11,
5964,-0.505,-0.105,
5965,-0.525,-0.12,
5966,-0.555,-0.105,
5967,-0.54,-0.105,
5968,-0.51,-0.1,
5969,-0.495,-0.115,
5970,-0.525,-0.105,
5971,-0.52,-0.11,
5972,-0.515,-0.125,
5973,-0.5,-0.125,
5974,-0.485,-0.14,
5975,-0.49,-0.145,
5976,-0.495,-0.145,
5977,-0.495,-0.135,
5978,-0.485,-0.13,
5979,-0.47,-0.125,
5980,-0.465,-0.14,
5981,-0.475,-0.135,
5982,-0.47,-0.145,
5983,-0.47,-0.135,
5984,-0.445,-0.14,
5985,-0.435,-0.15,
5986,-0.445,-0.145,
5987,-0.46,-0.13,
5988,-0.465,-0.125,
5989,-0.44,-0.12,
5990,-0.425,-0.1,
5991,-0.4,-0.11,
5992,-0.395,-0.11,
5993,-0.395,-0.1,
5994,-0.385,-0.09,
5995,-0.4,-0.085,
5996,-0.375,-0.09,
5997,-0.36,-0.09,
5998,-0.345,-0.095,
5999,-0.345,-0.105,
6000,-0.35,-0.1,
6001,-0.35,-0.095,
6002,-0.34,-0.11,
6003,-0.325,-0.11,
6004,-0.315,-0.125,
6005,-0.315,-0.135,
6006,-0.305,-0.13,
6007,-0.32,-0.11,
6008,-0.305,-0.115,
6009,-0.3,-0.115,
6010,-0.28,-0.13,
6011,-0.28,-0.15,
6012,-0.29,-0.15,
6013,-0.305,-0.135,
6014,-0.295,-0.135,
6015,-0.29,-0.14,
6016,-0.295,-0.15,
6017,-0.31,-0.17,
6018,-0.32,-0.16,
6019,-0.33,-0.16,
6020,-0.325,-0.15,
6021,-0.33,-0.155,
6022,-0.345,-0.16,
6023,-0.365,-0.16,
6024,-0.385,-0.155,
6025,-0.4,-0.155,
6026,-0.39,-0.135,
6027,-0.385,-0.135,
6028,-0.385,-0.14,
6029,-0.395,-0.15,
6030,-0.415,-0.145,
6031,-0.43,-0.12,
6032,-0.435,-0.11,
6033,-0.43,-0.105,
6034,-0.44,-0.115,
6035,-0.43,-0.105,
6036,-0.445,-0.105,
6037,-0.455,-0.095,
6038,-0.44,-0.075,
6039,-0.425,-0.085,
6040,-0.44,-0.09,
6041,-0.455,-0.095,
6042,-0.465,-0.09,
6043,-0.47,-0.08,
6044,-0.465,-0.07,
6045,-0.445,-0.07,
6046,-0.455,-0.085,
6047,-0.45,-0.105,
6048,-0.45,-0.11,
6049,-0.45,-0.11,
6050,-0.425,-0.095,
6051,-0.43,-0.1,
6052,-0.43,-0.105,
6053,-0.425,-0.105,
6054,-0.44,-0.1,
6055,-0.45,-0.1,
6056,-0.445,-0.09,
6057,-0.44,-0.1,
6058,-0.425,-0.1,
6059,-0.42,-0.105,
6060,-0.41,-0.12,
6061,-0.42,-0.105,
6062,-0.43,-0.11,
6063,-0.41,-0.12,
6064,-0.41,-0.14,
6065,-0.405,-0.15,
6066,-0.4,-0.15,
6067,-0.405,-0.13,
6068,-0.38,-0.12,
6069,-0.385,-0.13,
6070,-0.39,-0.13,
6071,-0.39,-0.135,
6072,-0.385,-0.14,
6073,-0.385,-0.125,
6074,-0.365,-0.115,
6075,-0.365,-0.125,
6076,-0.365,-0.105,
6077,-0.38,-0.105,
6078,-0.37,-0.095,
6079,-0.365,-0.09,
6080,-0.36,-0.09,
6081,-0.365,-0.08,
6082,-0.36,-0.085,
6083,-0.365,-0.1,
6084,-0.365,-0.095,
6085,-0.36,-0.085,
6086,-0.365,-0.07,
6087,-0.345,-0.07,
6088,-0.345,-0.08,
6089,-0.36,-0.105,
6090,-0.36,-0.095,
6091,-0.355,-0.1,
6092,-0.355,-0.1,
6093,-0.345,-0.1,
6094,-0.33,-0.11,
6095,-0.33,-0.12,
6096,-0.335,-0.11,
6097,-0.345,-0.115,
6098,-0.34,-0.095,
6099,-0.335,-0.1,
6100,-0.35,-0.11,
6101,-0.355,-0.125,
6102,-0.36,-0.13,
6103,-0.35,-0.115,
6104,-0.335,-0.11,
6105,-0.345,-0.115,
6106,-0.345,-0.13,
6107,-0.355,-0.135,
6108,-0.36,-0.155,
6109,-0.36,-0.135,
6110,-0.345,-0.125,
6111,-0.345,-0.125,
6112,-0.34,-0.135,
6113,-0.35,-0.15,
6114,-0.355,-0.145,
6115,-0.36,-0.14,
6116,-0.355,-0.13,
6117,-0.34,-0.125,
6118,-0.345,-0.135,
6119,-0.34,-0.14,
6120,-0.355,-0.15,
6121,-0.345,-0.13,
6122,-0.345,-0.1,
6123,-0.325,-0.09,
6124,-0.34,-0.09,
6125,-0.35,-0.1,
6126,-0.365,-0.11,
6127,-0.355,-0.105,
6128,-0.345,-0.075,
6129,-0.335,-0.08,
6130,-0.325,-0.08,
6131,-0.335,-0.095,
6132,-0.35,-0.11,
6133,-0.365,-0.09,
6134,-0.355,-0.085,
6135,-0.34,-0.08,
6136,-0.33,-0.095,
6137,-0.33,-0.11,
6138,-0.335,-0.135,
6139,-0.345,-0.12,
6140,-0.36,-0.095,
6141,-0.345,-0.09,
6142,-0.33,-0.09,
6143,-0.325,-0.105,
6144,-0.35,-0.13,
6145,-0.345,-0.11,
6146,-0.33,-0.1,
6147,-0.32,-0.085,
6148,-0.335,-0.09,
6149,-0.325,-0.11,
6150,-0.325,-0.125,
6151,-0.33,-0.13,
6152,-0.315,-0.13,
6153,-0.305,-0.115,
6154,-0.305,-0.125,
6155,-0.295,-0.13,
6156,-0.305,-0.15,
6157,-0.305,-0.155,
6158,-0.29,-0.13,
6159,-0.28,-0.13,
6160,-0.285,-0.12,
6161,-0.285,-0.125,
6162,-0.275,-0.14,
6163,-0.25,-0.145,
6164,-0.225,-0.125,
6165,-0.2,-0.11,
6166,-0.18,-0.095,
6167,-0.135,-0.09,
6168,-0.13,-0.115,
6169,-0.16,-0.115,
6170,-0.16,-0.1,
6171,-0.17,-0.085,
6172,-0.155,-0.07,
6173,-0.165,-0.085,
6174,-0.18,-0.1,
6175,-0.2,-0.09,
6176,-0.205,-0.09,
6177,-0.2,-0.085,
6178,-0.2,-0.08,
6179,-0.21,-0.085,
6180,-0.205,-0.105,
6181,-0.21,-0.095,
6182,-0.22,-0.09,
6183,-0.225,-0.085,
6184,-0.23,-0.085,
6185,-0.25,-0.095,
6186,-0.27,-0.11,
6187,-0.29,-0.115,
6188,-0.3,-0.11,
6189,-0.295,-0.105,
6190,-0.29,-0.1,
6191,-0.295,-0.1,
6192,-0.305,-0.115,
6193,-0.315,-0.11,
6194,-0.31,-0.105,
6195,-0.305,-0.105,
6196,-0.3,-0.11,
6197,-0.31,-0.12,
6198,-0.32,-0.14,
6199,-0.32,-0.135,
6200,-0.33,-0.14,
6201,-0.29,-0.135,
6202,-0.305,-0.125,
6203,-0.315,-0.135,
6204,-0.32,-0.14,
6205,-0.32,-0.135,
6206,-0.3,-0.135,
6207,-0.3,-0.135,
6208,-0.295,-0.125,
6209,-0.3,-0.13,
6210,-0.325,-0.125,
6211,-0.35,-0.115,
6212,-0.365,-0.115,
6213,-0.385,-0.095,
6214,-0.39,-0.085,
6215,-0.36,-0.08,
6216,-0.295,-0.075,
6217,-0.12,-0.07,
6218,0.1,-0.055,
6219,0.335,-0.065,
6220,0.63,-0.07,
6221,0.94,-0.09,
6222,1.135,-0.12,
6223,1.11,-0.15,N
6224,0.9,-0.18,
6225,0.63,-0.195,
6226,0.385,-0.18,
6227,0.16,-0.155,
6228,0.02,-0.11,
6229,-0.015,-0.095,
6230,-0.03,-0.075,
6231,-0.075,-0.075,
6232,-0.105,-0.085,
6233,-0.13,-0.09,
6234,-0.17,-0.085,
6235,-0.205,-0.11,
6236,-0.22,-0.09,
6237,-0.255,-0.095,
6238,-0.285,-0.1,
6239,-0.325,-0.105,
6240,-0.31,-0.105,
6241,-0.325,-0.095,
6242,-0.33,-0.11,
6243,-0.32,-0.115,
6244,-0.335,-0.105,
6245,-0.33,-0.115,
6246,-0.34,-0.13,
6247,-0.36,-0.125,
6248,-0.35,-0.125,
6249,-0.345,-0.115,
6250,-0.335,-0.115,
6251,-0.335,-0.115,
6252,-0.335,-0.115,
6253,-0.33,-0.115,
6254,-0.335,-0.11,
6255,-0.335,-0.1,
6256,-0.335,-0.09,
6257,-0.335,-0.09,
6258,-0.34,-0.1,
6259,-0.34,-0.085,
6260,-0.355,-0.075,
6261,-0.35,-0.065,
6262,-0.33,-0.06,
6263,-0.33,-0.065,
6264,-0.325,-0.075,
6265,-0.33,-0.08,
6266,-0.34,-0.065,
6267,-0.325,-0.06,
6268,-0.325,-0.045,
6269,-0.325,-0.065,
6270,-0.345,-0.07,
6271,-0.36,-0.09,
6272,-0.34,-0.09,
6273,-0.325,-0.07,
6274,-0.32,-0.075,
6275,-0.32,-0.075,
6276,-0.32,-0.1,
6277,-0.32,-0.105,
6278,-0.325,-0.095,
6279,-0.32,-0.07,
6280,-0.315,-0.075,
6281,-0.31,-0.08,
6282,-0.315,-0.1,
6283,-0.33,-0.095,
6284,-0.325,-0.105,
6285,-0.305,-0.095,
6286,-0.295,-0.1,
6287,-0.3,-0.115,
6288,-0.315,-0.12,
6289,-0.315,-0.135,
6290,-0.295,-0.125,
6291,-0.285,-0.105,
6292,-0.29,-0.11,
6293,-0.295,-0.115,
6294,-0.29,-0.125,
6295,-0.295,-0.135,
6296,-0.28,-0.12,
6297,-0.25,-0.12,
6298,-0.25,-0.09,
6299,-0.25,-0.085,
6300,-0.265,-0.105,
6301,-0.26,-0.09,
6302,-0.235,-0.09,
6303,-0.23,-0.07,
6304,-0.22,-0.06,
6305,-0.205,-0.07,
6306,-0.215,-0.08,
6307,-0.205,-0.075,
6308,-0.2,-0.065,
6309,-0.185,-0.055,
6310,-0.18,-0.055,
6311,-0.165,-0.055,
6312,-0.155,-0.07,
6313,-0.16,-0.08,
6314,-0.135,-0.095,
6315,-0.14,-0.085,
6316,-0.13,-0.08,
6317,-0.12,-0.09,
6318,-0.115,-0.11,
6319,-0.12,-0.115,
6320,-0.09,-0.105,
6321,-0.075,-0.085,
6322,-0.06,-0.09,
6323,-0.05,-0.095,
6324,-0.07,-0.115,
6325,-0.065,-0.125,
6326,-0.055,-0.1,
6327,-0.045,-0.09,
6328,-0.03,-0.105,
6329,-0.03,-0.12,
6330,-0.035,-0.145,
6331,-0.04,-0.15,
6332,-0.03,-0.12,
6333,-0.03,-0.11,
6334,-0.03,-0.11,
6335,-0.035,-0.125,
6336,-0.065,-0.14,
6337,-0.065,-0.135,
6338,-0.06,-0.115,
6339,-0.045,-0.09,
6340,-0.05,-0.1,
6341,-0.075,-0.115,
6342,-0.1,-0.115,
6343,-0.125,-0.1,
6344,-0.125,-0.09,
6345,-0.125,-0.065,
6346,-0.11,-0.065,
6347,-0.115,-0.075,
6348,-0.135,-0.08,
6349,-0.165,-0.075,
6350,-0.2,-0.05,
6351,-0.225,-0.025,
6352,-0.245,-0.035,
6353,-0.235,-0.055,
6354,-0.225,-0.07,
6355,-0.22,-0.07,
6356,-0.225,-0.065,
6357,-0.225,-0.045,
6358,-0.22,-0.055,
6359,-0.225,-0.08,
6360,-0.215,-0.08,
6361,-0.23,-0.075,
6362,-0.22,-0.07,
6363,-0.215,-0.07,
6364,-0.215,-0.08,
6365,-0.225,-0.085,
6366,-0.225,-0.09,
6367,-0.225,-0.09,
6368,-0.22,-0.06,
6369,-0.22,-0.075,
6370,-0.225,-0.09,
6371,-0.23,-0.12,
6372,-0.23,-0.11,
6373,-0.23,-0.105,
6374,-0.225,-0.09,
6375,-0.22,-0.095,
6376,-0.21,-0.1,
6377,-0.22,-0.11,
6378,-0.22,-0.11,
6379,-0.225,-0.1,
6380,-0.2,-0.09,
6381,-0.195,-0.095,
6382,-0.18,-0.105,
6383,-0.19,-0.095,
6384,-0.215,-0.09,
6385,-0.22,-0.08,
6386,-0.215,-0.06,
6387,-0.195,-0.065,
6388,-0.2,-0.07,
6389,-0.195,-0.06,
6390,-0.2,-0.055,
6391,-0.195,-0.06,
6392,-0.205,-0.065,
6393,-0.2,-0.06,
6394,-0.19,-0.06,
6395,-0.2,-0.07,
6396,-0.2,-0.065,
6397,-0.21,-0.055,
6398,-0.205,-0.06,
6399,-0.205,-0.08,
6400,-0.2,-0.075,
6401,-0.195,-0.075,
6402,-0.18,-0.08,
6403,-0.195,-0.08,
6404,-0.2,-0.075,
6405,-0.18,-0.08,
6406,-0.165,-0.07,
6407,-0.175,-0.075,
6408,-0.18,-0.07,
6409,-0.2,-0.07,
6410,-0.2,-0.07,
6411,-0.195,-0.075,
6412,-0.195,-0.075,
6413,-0.195,-0.085,
6414,-0.215,-0.1,
6415,-0.215,-0.105,
6416,-0.205,-0.115,
6417,-0.205,-0.1,
6418,-0.205,-0.09,
6419,-0.21,-0.105,
6420,-0.21,-0.11,
6421,-0.22,-0.125,
6422,-0.21,-0.105,
6423,-0.21,-0.08,
6424,-0.2,-0.08,
6425,-0.2,-0.085,
6426,-0.215,-0.09,
6427,-0.23,-0.09,
