,MLII,V5,symbol
n15,-0.175,-0.065,
16,-0.18,-0.055,
17,-0.185,-0.05,
18,-0.17,-0.05,+
19,-0.155,-0.04,
20,-0.175,-0.04,
21,-0.18,-0.055,
22,-0.19,-0.075,
23,-0.18,-0.08,
24,-0.155,-0.085,
25,-0.135,-0.07,
26,-0.155,-0.08,
27,-0.19,-0.08,
28,-0.205,-0.09,
29,-0.235,-0.095,
30,-0.225,-0.09,
31,-0.245,-0.095,
32,-0.25,-0.11,
33,-0.26,-0.12,
34,-0.275,-0.145,
35,-0.275,-0.135,
36,-0.275,-0.105,
37,-0.265,-0.095,
38,-0.255,-0.105,
39,-0.265,-0.12,
40,-0.275,-0.135,
41,-0.29,-0.125,
42,-0.29,-0.125,
43,-0.29,-0.115,
44,-0.29,-0.115,
45,-0.285,-0.125,
46,-0.295,-0.14,
47,-0.305,-0.14,
48,-0.285,-0.13,
49,-0.275,-0.125,
50,-0.275,-0.14,
51,-0.28,-0.145,
52,-0.285,-0.15,
53,-0.305,-0.15,
54,-0.29,-0.13,
55,-0.3,-0.115,
56,-0.28,-0.125,
57,-0.29,-0.135,
58,-0.3,-0.16,
59,-0.315,-0.195,
60,-0.32,-0.2,
61,-0.335,-0.205,
62,-0.36,-0.225,
63,-0.385,-0.255,
64,-0.385,-0.3,
65,-0.405,-0.29,
66,-0.455,-0.235,
67,-0.485,-0.13,
68,-0.485,-0.035,
69,-0.425,0.05,
70,-0.33,0.12,
71,-0.22,0.2,
72,-0.07,0.31,
73,0.12,0.435,
74,0.375,0.535,
75,0.62,0.58,
76,0.78,0.475,
77,0.84,0.21,N
78,0.765,-0.085,
79,0.52,-0.23,
80,0.17,-0.25,
81,-0.165,-0.215,
82,-0.365,-0.18,
83,-0.435,-0.185,
84,-0.425,-0.16,
85,-0.37,-0.15,
86,-0.33,-0.15,
87,-0.325,-0.18,
88,-0.335,-0.18,
89,-0.345,-0.16,
90,-0.33,-0.165,
91,-0.325,-0.17,
92,-0.315,-0.165,
93,-0.31,-0.185,
94,-0.32,-0.185,
95,-0.335,-0.185,
96,-0.34,-0.17,
97,-0.325,-0.16,
98,-0.345,-0.155,
99,-0.335,-0.175,
100,-0.33,-0.195,
101,-0.335,-0.185,
102,-0.33,-0.185,
103,-0.325,-0.175,
104,-0.33,-0.175,
105,-0.33,-0.195,
106,-0.345,-0.19,
107,-0.355,-0.18,
108,-0.335,-0.165,
109,-0.325,-0.17,
110,-0.305,-0.17,
111,-0.32,-0.17,
112,-0.32,-0.19,
113,-0.33,-0.185,
114,-0.34,-0.18,
115,-0.335,-0.17,
116,-0.34,-0.175,
117,-0.345,-0.19,
118,-0.355,-0.2,
119,-0.355,-0.195,
120,-0.34,-0.185,
121,-0.33,-0.17,
122,-0.33,-0.17,
123,-0.33,-0.185,
124,-0.34,-0.195,
125,-0.35,-0.175,
126,-0.325,-0.2,
127,-0.325,-0.185,
128,-0.33,-0.18,
129,-0.33,-0.185,
130,-0.335,-0.205,
131,-0.335,-0.19,
132,-0.34,-0.18,
133,-0.33,-0.185,
134,-0.34,-0.2,
135,-0.35,-0.215,
136,-0.355,-0.205,
137,-0.35,-0.21,
138,-0.345,-0.2,
139,-0.33,-0.185,
140,-0.32,-0.205,
141,-0.335,-0.2,
142,-0.33,-0.21,
143,-0.345,-0.205,
144,-0.33,-0.185,
145,-0.335,-0.185,
146,-0.335,-0.2,
147,-0.345,-0.215,
148,-0.345,-0.225,
149,-0.355,-0.22,
150,-0.34,-0.2,
151,-0.34,-0.2,
152,-0.335,-0.215,
153,-0.33,-0.225,
154,-0.35,-0.235,
155,-0.35,-0.245,
156,-0.345,-0.24,
157,-0.335,-0.24,
158,-0.335,-0.24,
159,-0.335,-0.245,
160,-0.35,-0.26,
161,-0.355,-0.26,
162,-0.355,-0.265,
163,-0.345,-0.265,
164,-0.345,-0.28,
165,-0.335,-0.285,
166,-0.35,-0.295,
167,-0.36,-0.295,
168,-0.36,-0.3,
169,-0.36,-0.29,
170,-0.365,-0.3,
171,-0.36,-0.315,
172,-0.37,-0.315,
173,-0.385,-0.315,
174,-0.37,-0.315,
175,-0.36,-0.31,
176,-0.355,-0.31,
177,-0.36,-0.325,
178,-0.375,-0.33,
179,-0.375,-0.325,
180,-0.365,-0.315,
181,-0.365,-0.305,
182,-0.36,-0.305,
183,-0.36,-0.29,
184,-0.365,-0.29,
185,-0.37,-0.275,
186,-0.355,-0.27,
187,-0.33,-0.245,
188,-0.325,-0.24,
189,-0.325,-0.25,
190,-0.335,-0.25,
191,-0.34,-0.235,
192,-0.315,-0.22,
193,-0.3,-0.195,
194,-0.3,-0.19,
195,-0.29,-0.19,
196,-0.295,-0.19,
197,-0.29,-0.18,
198,-0.285,-0.16,
199,-0.275,-0.145,
200,-0.255,-0.15,
201,-0.25,-0.16,
202,-0.25,-0.16,
203,-0.265,-0.155,
204,-0.255,-0.145,
205,-0.245,-0.14,
206,-0.23,-0.16,
207,-0.245,-0.15,
208,-0.245,-0.175,
209,-0.255,-0.17,
210,-0.255,-0.16,
211,-0.24,-0.16,
212,-0.25,-0.15,
213,-0.255,-0.155,
214,-0.245,-0.16,
215,-0.255,-0.17,
216,-0.25,-0.155,
217,-0.25,-0.155,
218,-0.265,-0.15,
219,-0.26,-0.165,
220,-0.26,-0.175,
221,-0.265,-0.165,
222,-0.27,-0.165,
223,-0.265,-0.16,
224,-0.26,-0.16,
225,-0.275,-0.18,
226,-0.28,-0.175,
227,-0.29,-0.185,
228,-0.275,-0.165,
229,-0.27,-0.15,
230,-0.26,-0.15,
231,-0.28,-0.17,
232,-0.28,-0.185,
233,-0.285,-0.195,
234,-0.275,-0.19,
235,-0.275,-0.19,
236,-0.265,-0.185,
237,-0.27,-0.19,
238,-0.285,-0.21,
239,-0.29,-0.195,
240,-0.28,-0.19,
241,-0.275,-0.18,
242,-0.285,-0.205,
243,-0.28,-0.215,
244,-0.3,-0.225,
245,-0.3,-0.21,
246,-0.305,-0.205,
247,-0.295,-0.195,
248,-0.3,-0.2,
249,-0.31,-0.195,
250,-0.31,-0.21,
251,-0.305,-0.215,
252,-0.295,-0.205,
253,-0.285,-0.185,
254,-0.285,-0.195,
255,-0.29,-0.195,
256,-0.295,-0.22,
257,-0.31,-0.22,
258,-0.29,-0.21,
259,-0.295,-0.215,
260,-0.3,-0.22,
261,-0.305,-0.22,
262,-0.31,-0.225,
263,-0.325,-0.21,
264,-0.31,-0.2,
265,-0.3,-0.21,
266,-0.29,-0.225,
267,-0.31,-0.23,
268,-0.325,-0.225,
269,-0.33,-0.22,
270,-0.315,-0.23,
271,-0.3,-0.21,
272,-0.305,-0.215,
273,-0.31,-0.215,
274,-0.32,-0.23,
275,-0.33,-0.215,
276,-0.325,-0.22,
277,-0.315,-0.205,
278,-0.31,-0.205,
279,-0.305,-0.21,
280,-0.305,-0.215,
281,-0.31,-0.225,
282,-0.3,-0.215,
283,-0.305,-0.215,
284,-0.29,-0.215,
285,-0.3,-0.225,
286,-0.3,-0.225,
287,-0.305,-0.225,
288,-0.305,-0.205,
289,-0.29,-0.195,
290,-0.28,-0.21,
291,-0.295,-0.21,
292,-0.305,-0.215,
293,-0.315,-0.235,
294,-0.305,-0.23,
295,-0.295,-0.22,
296,-0.29,-0.22,
297,-0.28,-0.23,
298,-0.27,-0.225,
299,-0.275,-0.23,
300,-0.275,-0.215,
301,-0.27,-0.195,
302,-0.25,-0.195,
303,-0.25,-0.19,
304,-0.255,-0.2,
305,-0.225,-0.195,
306,-0.22,-0.18,
307,-0.205,-0.17,
308,-0.2,-0.18,
309,-0.205,-0.175,
310,-0.215,-0.195,
311,-0.23,-0.195,
312,-0.22,-0.17,
313,-0.225,-0.175,
314,-0.225,-0.175,
315,-0.225,-0.18,
316,-0.23,-0.185,
317,-0.235,-0.185,
318,-0.24,-0.175,
319,-0.235,-0.175,
320,-0.22,-0.175,
321,-0.21,-0.19,
322,-0.205,-0.205,
323,-0.245,-0.2,
324,-0.285,-0.205,
325,-0.285,-0.205,
326,-0.3,-0.215,
327,-0.31,-0.215,
328,-0.33,-0.225,
329,-0.33,-0.215,
330,-0.325,-0.21,
331,-0.315,-0.2,
332,-0.32,-0.215,
333,-0.315,-0.225,
334,-0.325,-0.245,
335,-0.34,-0.245,
336,-0.345,-0.25,
337,-0.34,-0.225,
338,-0.34,-0.23,
339,-0.35,-0.235,
340,-0.345,-0.24,
341,-0.355,-0.235,
342,-0.33,-0.235,
343,-0.335,-0.22,
344,-0.33,-0.23,
345,-0.32,-0.24,
346,-0.345,-0.24,
347,-0.355,-0.245,
348,-0.34,-0.225,
349,-0.33,-0.225,
350,-0.325,-0.235,
351,-0.33,-0.25,
352,-0.35,-0.27,
353,-0.365,-0.28,
354,-0.36,-0.29,
355,-0.38,-0.3,
356,-0.425,-0.33,
357,-0.445,-0.36,
358,-0.475,-0.355,
359,-0.51,-0.305,
360,-0.535,-0.205,
361,-0.505,-0.08,
362,-0.415,0.015,
363,-0.3,0.065,
364,-0.16,0.115,
365,-0.015,0.19,
366,0.235,0.3,
367,0.49,0.41,
368,0.72,0.495,
369,0.875,0.485,
370,0.94,0.36,N
371,0.905,0.105,
372,0.755,-0.165,
373,0.49,-0.35,
374,0.165,-0.45,
375,-0.11,-0.47,
376,-0.27,-0.45,
377,-0.39,-0.395,
378,-0.45,-0.345,
379,-0.475,-0.31,
380,-0.455,-0.295,
381,-0.425,-0.285,
382,-0.39,-0.295,
383,-0.39,-0.295,
384,-0.385,-0.28,
385,-0.39,-0.285,
386,-0.38,-0.285,
387,-0.38,-0.285,
388,-0.38,-0.29,
389,-0.395,-0.275,
390,-0.385,-0.275,
391,-0.385,-0.275,
392,-0.385,-0.27,
393,-0.375,-0.285,
394,-0.395,-0.295,
395,-0.41,-0.29,
396,-0.41,-0.275,
397,-0.4,-0.265,
398,-0.395,-0.265,
399,-0.39,-0.275,
400,-0.405,-0.295,
401,-0.395,-0.29,
402,-0.385,-0.285,
403,-0.375,-0.27,
404,-0.39,-0.265,
405,-0.39,-0.275,
406,-0.405,-0.28,
407,-0.41,-0.28,
408,-0.41,-0.27,
409,-0.39,-0.265,
410,-0.39,-0.27,
411,-0.395,-0.27,
412,-0.405,-0.28,
413,-0.415,-0.27,
414,-0.4,-0.265,
415,-0.41,-0.265,
416,-0.405,-0.265,
417,-0.41,-0.27,
418,-0.415,-0.285,
419,-0.41,-0.285,
420,-0.4,-0.265,
421,-0.4,-0.265,
422,-0.395,-0.255,
423,-0.39,-0.275,
424,-0.405,-0.275,
425,-0.41,-0.28,
426,-0.39,-0.27,
427,-0.39,-0.265,
428,-0.385,-0.275,
429,-0.385,-0.285,
430,-0.41,-0.28,
431,-0.405,-0.28,
432,-0.395,-0.275,
433,-0.39,-0.275,
434,-0.375,-0.275,
435,-0.39,-0.285,
436,-0.395,-0.295,
437,-0.41,-0.295,
438,-0.4,-0.275,
439,-0.39,-0.275,
440,-0.39,-0.285,
441,-0.385,-0.29,
442,-0.405,-0.315,
443,-0.415,-0.315,
444,-0.415,-0.305,
445,-0.4,-0.29,
446,-0.395,-0.31,
447,-0.405,-0.32,
448,-0.415,-0.32,
449,-0.42,-0.335,
450,-0.42,-0.33,
451,-0.41,-0.325,
452,-0.415,-0.345,
453,-0.425,-0.35,
454,-0.42,-0.365,
455,-0.435,-0.37,
456,-0.43,-0.355,
457,-0.43,-0.36,
458,-0.42,-0.37,
459,-0.43,-0.39,
460,-0.45,-0.395,
461,-0.455,-0.4,
462,-0.45,-0.39,
463,-0.435,-0.385,
464,-0.445,-0.39,
465,-0.45,-0.4,
466,-0.455,-0.41,
467,-0.47,-0.42,
468,-0.46,-0.405,
469,-0.455,-0.41,
470,-0.45,-0.41,
471,-0.455,-0.4,
472,-0.47,-0.405,
473,-0.475,-0.39,
474,-0.46,-0.385,
475,-0.45,-0.365,
476,-0.445,-0.355,
477,-0.44,-0.345,
478,-0.435,-0.355,
479,-0.44,-0.33,
480,-0.41,-0.295,
481,-0.395,-0.275,
482,-0.37,-0.27,
483,-0.365,-0.26,
484,-0.36,-0.265,
485,-0.365,-0.265,
486,-0.34,-0.245,
487,-0.325,-0.225,
488,-0.315,-0.21,
489,-0.32,-0.215,
490,-0.33,-0.215,
491,-0.33,-0.205,
492,-0.32,-0.195,
493,-0.31,-0.185,
494,-0.3,-0.185,
495,-0.3,-0.195,
496,-0.32,-0.195,
497,-0.32,-0.195,
498,-0.315,-0.185,
499,-0.305,-0.17,
500,-0.305,-0.185,
501,-0.295,-0.195,
502,-0.32,-0.195,
503,-0.33,-0.195,
504,-0.305,-0.185,
505,-0.31,-0.175,
506,-0.3,-0.175,
507,-0.3,-0.185,
508,-0.32,-0.195,
509,-0.325,-0.195,
510,-0.31,-0.195,
511,-0.305,-0.18,
512,-0.315,-0.185,
513,-0.305,-0.19,
514,-0.315,-0.195,
515,-0.315,-0.195,
516,-0.31,-0.19,
517,-0.295,-0.185,
518,-0.29,-0.185,
519,-0.305,-0.19,
520,-0.31,-0.2,
521,-0.32,-0.215,
522,-0.315,-0.195,
523,-0.3,-0.185,
524,-0.315,-0.185,
525,-0.315,-0.185,
526,-0.315,-0.2,
527,-0.33,-0.205,
528,-0.315,-0.19,
529,-0.32,-0.19,
530,-0.315,-0.2,
531,-0.325,-0.2,
532,-0.335,-0.195,
533,-0.34,-0.22,
534,-0.335,-0.205,
535,-0.335,-0.19,
536,-0.33,-0.2,
537,-0.325,-0.22,
538,-0.345,-0.23,
539,-0.35,-0.21,
540,-0.345,-0.205,
541,-0.335,-0.2,
542,-0.33,-0.195,
543,-0.33,-0.22,
544,-0.345,-0.225,
545,-0.345,-0.225,
546,-0.345,-0.215,
547,-0.32,-0.205,
548,-0.33,-0.205,
549,-0.335,-0.215,
550,-0.34,-0.225,
551,-0.355,-0.22,
552,-0.335,-0.225,
553,-0.33,-0.195,
554,-0.33,-0.215,
555,-0.335,-0.22,
556,-0.355,-0.215,
557,-0.36,-0.225,
558,-0.355,-0.215,
559,-0.35,-0.21,
560,-0.34,-0.21,
561,-0.345,-0.225,
562,-0.345,-0.23,
563,-0.345,-0.22,
564,-0.345,-0.21,
565,-0.33,-0.205,
566,-0.33,-0.2,
567,-0.335,-0.205,
568,-0.345,-0.22,
569,-0.35,-0.23,
570,-0.35,-0.215,
571,-0.34,-0.205,
572,-0.33,-0.2,
573,-0.345,-0.23,
574,-0.345,-0.22,
575,-0.355,-0.215,
576,-0.35,-0.205,
577,-0.34,-0.2,
578,-0.33,-0.205,
579,-0.34,-0.22,
580,-0.34,-0.22,
581,-0.34,-0.225,
582,-0.33,-0.205,
583,-0.335,-0.2,
584,-0.33,-0.2,
585,-0.335,-0.21,
586,-0.345,-0.23,
587,-0.345,-0.215,
588,-0.34,-0.2,
589,-0.33,-0.2,
590,-0.315,-0.205,
591,-0.295,-0.21,
592,-0.3,-0.215,
593,-0.295,-0.22,
594,-0.285,-0.205,
595,-0.275,-0.2,
596,-0.265,-0.195,
597,-0.265,-0.205,
598,-0.265,-0.205,
599,-0.255,-0.205,
600,-0.25,-0.18,
601,-0.24,-0.17,
602,-0.225,-0.19,
603,-0.215,-0.19,
604,-0.24,-0.2,
605,-0.245,-0.185,
606,-0.24,-0.165,
607,-0.245,-0.145,
608,-0.235,-0.145,
609,-0.245,-0.17,
610,-0.25,-0.175,
611,-0.275,-0.17,
612,-0.275,-0.165,
613,-0.265,-0.15,
614,-0.25,-0.16,
615,-0.225,-0.175,
616,-0.22,-0.19,
617,-0.23,-0.19,
618,-0.265,-0.185,
619,-0.27,-0.185,
620,-0.28,-0.175,
621,-0.285,-0.195,
622,-0.305,-0.215,
623,-0.32,-0.205,
624,-0.34,-0.2,
625,-0.33,-0.195,
626,-0.335,-0.205,
627,-0.335,-0.21,
628,-0.355,-0.22,
629,-0.37,-0.215,
630,-0.36,-0.21,
631,-0.345,-0.205,
632,-0.35,-0.2,
633,-0.355,-0.21,
634,-0.365,-0.22,
635,-0.375,-0.22,
636,-0.38,-0.22,
637,-0.37,-0.2,
638,-0.365,-0.205,
639,-0.365,-0.215,
640,-0.38,-0.225,
641,-0.385,-0.22,
642,-0.38,-0.215,
643,-0.375,-0.205,
644,-0.355,-0.22,
645,-0.37,-0.225,
646,-0.39,-0.24,
647,-0.405,-0.26,
648,-0.41,-0.28,
649,-0.435,-0.3,
650,-0.465,-0.345,
651,-0.49,-0.375,
652,-0.52,-0.345,
653,-0.555,-0.26,
654,-0.57,-0.125,
655,-0.525,0.025,
656,-0.405,0.145,
657,-0.25,0.26,
658,-0.09,0.375,
659,0.12,0.505,
660,0.41,0.635,
661,0.69,0.705,
662,0.885,0.61,N
663,0.96,0.32,
664,0.85,-0.045,
665,0.52,-0.25,
666,0.05,-0.27,
667,-0.32,-0.24,
668,-0.5,-0.24,
669,-0.505,-0.25,
670,-0.445,-0.255,
671,-0.415,-0.245,
672,-0.395,-0.245,
673,-0.39,-0.245,
674,-0.395,-0.255,
675,-0.39,-0.26,
676,-0.395,-0.26,
677,-0.405,-0.27,
678,-0.395,-0.245,
679,-0.405,-0.245,
680,-0.39,-0.25,
681,-0.395,-0.265,
682,-0.395,-0.27,
683,-0.41,-0.27,
684,-0.405,-0.265,
685,-0.4,-0.26,
686,-0.4,-0.26,
687,-0.415,-0.27,
688,-0.405,-0.28,
689,-0.42,-0.28,
690,-0.415,-0.27,
691,-0.405,-0.255,
692,-0.405,-0.265,
693,-0.42,-0.28,
694,-0.42,-0.29,
695,-0.435,-0.275,
696,-0.42,-0.265,
697,-0.41,-0.255,
698,-0.41,-0.26,
699,-0.405,-0.26,
700,-0.425,-0.28,
701,-0.43,-0.28,
702,-0.42,-0.265,
703,-0.415,-0.26,
704,-0.41,-0.255,
705,-0.41,-0.26,
706,-0.425,-0.275,
707,-0.42,-0.27,
708,-0.4,-0.275,
709,-0.395,-0.265,
710,-0.4,-0.265,
711,-0.4,-0.27,
712,-0.395,-0.28,
713,-0.415,-0.285,
714,-0.405,-0.28,
715,-0.39,-0.255,
716,-0.4,-0.27,
717,-0.4,-0.28,
718,-0.415,-0.29,
719,-0.425,-0.29,
720,-0.425,-0.27,
721,-0.415,-0.27,
722,-0.415,-0.285,
723,-0.41,-0.3,
724,-0.425,-0.3,
725,-0.425,-0.3,
726,-0.42,-0.295,
727,-0.415,-0.275,
728,-0.4,-0.295,
729,-0.4,-0.3,
730,-0.41,-0.31,
731,-0.425,-0.31,
732,-0.41,-0.315,
733,-0.405,-0.31,
734,-0.395,-0.31,
735,-0.4,-0.335,
736,-0.4,-0.345,
737,-0.405,-0.355,
738,-0.385,-0.35,
739,-0.4,-0.345,
740,-0.39,-0.36,
741,-0.39,-0.37,
742,-0.4,-0.375,
743,-0.415,-0.385,
744,-0.405,-0.37,
745,-0.405,-0.37,
746,-0.41,-0.385,
747,-0.415,-0.4,
748,-0.42,-0.415,
749,-0.42,-0.405,
750,-0.425,-0.41,
751,-0.415,-0.39,
752,-0.415,-0.405,
753,-0.41,-0.41,
754,-0.435,-0.425,
755,-0.43,-0.42,
756,-0.435,-0.41,
757,-0.42,-0.405,
758,-0.42,-0.4,
759,-0.42,-0.4,
760,-0.42,-0.405,
761,-0.425,-0.385,
762,-0.425,-0.365,
763,-0.415,-0.345,
764,-0.395,-0.335,
765,-0.395,-0.325,
766,-0.39,-0.31,
767,-0.375,-0.295,
768,-0.36,-0.275,
769,-0.34,-0.255,
770,-0.335,-0.25,
771,-0.33,-0.24,
772,-0.335,-0.245,
773,-0.335,-0.23,
774,-0.325,-0.205,
775,-0.32,-0.2,
776,-0.305,-0.2,
777,-0.305,-0.205,
778,-0.315,-0.21,
779,-0.31,-0.22,
780,-0.305,-0.195,
781,-0.3,-0.19,
782,-0.3,-0.2,
783,-0.3,-0.2,
784,-0.31,-0.21,
785,-0.31,-0.2,
786,-0.31,-0.19,
787,-0.315,-0.175,
788,-0.3,-0.2,
789,-0.305,-0.205,
790,-0.315,-0.21,
791,-0.32,-0.2,
792,-0.325,-0.2,
793,-0.31,-0.18,
794,-0.305,-0.19,
795,-0.305,-0.19,
796,-0.32,-0.205,
797,-0.325,-0.205,
798,-0.305,-0.195,
799,-0.31,-0.185,
800,-0.295,-0.19,
801,-0.31,-0.19,
802,-0.325,-0.21,
803,-0.33,-0.21,
804,-0.32,-0.205,
805,-0.32,-0.205,
806,-0.32,-0.2,
807,-0.325,-0.215,
808,-0.35,-0.225,
809,-0.35,-0.21,
810,-0.34,-0.21,
811,-0.335,-0.21,
812,-0.33,-0.215,
813,-0.335,-0.225,
814,-0.34,-0.225,
815,-0.36,-0.23,
816,-0.35,-0.21,
817,-0.35,-0.21,
818,-0.355,-0.23,
819,-0.36,-0.25,
820,-0.355,-0.25,
821,-0.365,-0.245,
822,-0.355,-0.23,
823,-0.35,-0.215,
824,-0.34,-0.23,
825,-0.355,-0.24,
826,-0.35,-0.245,
827,-0.365,-0.245,
828,-0.365,-0.24,
829,-0.35,-0.215,
830,-0.355,-0.225,
831,-0.35,-0.24,
832,-0.37,-0.24,
833,-0.38,-0.245,
834,-0.37,-0.24,
835,-0.36,-0.23,
836,-0.365,-0.235,
837,-0.36,-0.24,
838,-0.365,-0.23,
839,-0.38,-0.25,
840,-0.37,-0.225,
841,-0.365,-0.215,
842,-0.35,-0.23,
843,-0.35,-0.24,
844,-0.35,-0.25,
845,-0.37,-0.265,
846,-0.365,-0.23,
847,-0.345,-0.22,
848,-0.345,-0.235,
849,-0.34,-0.225,
850,-0.355,-0.235,
851,-0.365,-0.235,
852,-0.36,-0.225,
853,-0.355,-0.225,
854,-0.355,-0.215,
855,-0.355,-0.225,
856,-0.375,-0.235,
857,-0.385,-0.23,
858,-0.355,-0.225,
859,-0.36,-0.225,
860,-0.355,-0.225,
861,-0.36,-0.225,
862,-0.36,-0.23,
863,-0.37,-0.23,
864,-0.36,-0.215,
865,-0.345,-0.21,
866,-0.355,-0.225,
867,-0.345,-0.24,
868,-0.345,-0.235,
869,-0.345,-0.24,
870,-0.34,-0.225,
871,-0.31,-0.215,
872,-0.305,-0.22,
873,-0.305,-0.22,
874,-0.31,-0.23,
875,-0.305,-0.23,
876,-0.29,-0.205,
877,-0.285,-0.2,
878,-0.275,-0.205,
879,-0.28,-0.195,
880,-0.28,-0.21,
881,-0.275,-0.205,
882,-0.265,-0.19,
883,-0.255,-0.185,
884,-0.245,-0.2,
885,-0.26,-0.195,
886,-0.265,-0.2,
887,-0.275,-0.19,
888,-0.28,-0.17,
889,-0.265,-0.14,
890,-0.27,-0.165,
891,-0.275,-0.165,
892,-0.28,-0.185,
893,-0.275,-0.18,
894,-0.28,-0.17,
895,-0.275,-0.15,
896,-0.265,-0.165,
897,-0.255,-0.18,
898,-0.24,-0.2,
899,-0.26,-0.21,
900,-0.28,-0.21,
901,-0.31,-0.185,
902,-0.31,-0.19,
903,-0.345,-0.2,
904,-0.36,-0.215,
905,-0.38,-0.22,
906,-0.385,-0.21,
907,-0.38,-0.195,
908,-0.37,-0.205,
909,-0.375,-0.22,
910,-0.385,-0.225,
911,-0.39,-0.23,
912,-0.395,-0.22,
913,-0.385,-0.21,
914,-0.385,-0.21,
915,-0.385,-0.23,
916,-0.395,-0.235,
917,-0.405,-0.23,
918,-0.4,-0.225,
919,-0.375,-0.215,
920,-0.375,-0.22,
921,-0.39,-0.22,
922,-0.395,-0.23,
923,-0.415,-0.24,
924,-0.405,-0.22,
925,-0.4,-0.225,
926,-0.39,-0.235,
927,-0.405,-0.25,
928,-0.425,-0.28,
929,-0.46,-0.305,
930,-0.475,-0.325,
931,-0.505,-0.345,
932,-0.51,-0.375,
933,-0.525,-0.415,
934,-0.54,-0.425,
935,-0.6,-0.385,
936,-0.645,-0.295,
937,-0.63,-0.18,
938,-0.575,-0.065,
939,-0.495,0.035,
940,-0.385,0.13,
941,-0.27,0.24,
942,-0.115,0.37,
943,0.09,0.495,
944,0.37,0.61,
945,0.635,0.655,
946,0.81,0.545,N
947,0.86,0.23,
948,0.77,-0.105,
949,0.475,-0.28,
950,0.065,-0.285,
951,-0.305,-0.255,
952,-0.5,-0.255,
953,-0.52,-0.26,
954,-0.475,-0.23,
955,-0.41,-0.22,
956,-0.39,-0.245,
957,-0.39,-0.255,
958,-0.4,-0.26,
959,-0.41,-0.25,
960,-0.405,-0.235,
961,-0.385,-0.245,
962,-0.39,-0.245,
963,-0.395,-0.26,
964,-0.405,-0.265,
965,-0.41,-0.265,
966,-0.405,-0.26,
967,-0.4,-0.24,
968,-0.39,-0.245,
969,-0.395,-0.26,
970,-0.41,-0.27,
971,-0.415,-0.27,
972,-0.41,-0.255,
973,-0.395,-0.255,
974,-0.405,-0.25,
975,-0.41,-0.265,
976,-0.405,-0.27,
977,-0.405,-0.27,
978,-0.41,-0.265,
979,-0.39,-0.25,
980,-0.385,-0.245,
981,-0.39,-0.265,
982,-0.395,-0.27,
983,-0.4,-0.26,
984,-0.4,-0.255,
985,-0.4,-0.245,
986,-0.395,-0.25,
987,-0.395,-0.26,
988,-0.405,-0.27,
989,-0.405,-0.26,
990,-0.4,-0.255,
991,-0.395,-0.25,
992,-0.385,-0.255,
993,-0.375,-0.255,
994,-0.385,-0.275,
995,-0.395,-0.27,
996,-0.39,-0.265,
997,-0.385,-0.26,
998,-0.375,-0.26,
999,-0.385,-0.275,
1000,-0.395,-0.27,
1001,-0.395,-0.26,
1002,-0.385,-0.245,
1003,-0.375,-0.255,
1004,-0.375,-0.265,
1005,-0.385,-0.265,
1006,-0.395,-0.27,
1007,-0.39,-0.265,
1008,-0.39,-0.26,
1009,-0.365,-0.27,
1010,-0.375,-0.265,
1011,-0.385,-0.27,
1012,-0.395,-0.28,
1013,-0.38,-0.285,
1014,-0.385,-0.28,
1015,-0.375,-0.285,
1016,-0.38,-0.29,
1017,-0.39,-0.31,
1018,-0.38,-0.305,
1019,-0.375,-0.3,
1020,-0.375,-0.3,
1021,-0.375,-0.31,
1022,-0.375,-0.325,
1023,-0.38,-0.34,
1024,-0.39,-0.34,
1025,-0.39,-0.325,
1026,-0.365,-0.32,
1027,-0.37,-0.355,
1028,-0.375,-0.36,
1029,-0.385,-0.38,
1030,-0.39,-0.385,
1031,-0.39,-0.375,
1032,-0.375,-0.365,
1033,-0.365,-0.375,
1034,-0.385,-0.385,
1035,-0.38,-0.39,
1036,-0.39,-0.395,
1037,-0.375,-0.385,
1038,-0.375,-0.375,
1039,-0.365,-0.375,
1040,-0.37,-0.375,
1041,-0.385,-0.38,
1042,-0.395,-0.365,
1043,-0.385,-0.345,
1044,-0.385,-0.335,
1045,-0.37,-0.315,
1046,-0.365,-0.31,
1047,-0.37,-0.305,
1048,-0.375,-0.29,
1049,-0.35,-0.27,
1050,-0.335,-0.255,
1051,-0.32,-0.25,
1052,-0.315,-0.245,
1053,-0.32,-0.235,
1054,-0.325,-0.235,
1055,-0.315,-0.225,
1056,-0.295,-0.22,
1057,-0.285,-0.195,
1058,-0.3,-0.215,
1059,-0.295,-0.23,
1060,-0.285,-0.215,
1061,-0.285,-0.205,
1062,-0.28,-0.195,
1063,-0.27,-0.2,
1064,-0.28,-0.195,
1065,-0.29,-0.195,
1066,-0.295,-0.205,
1067,-0.295,-0.195,
1068,-0.29,-0.18,
1069,-0.28,-0.19,
1070,-0.29,-0.205,
1071,-0.295,-0.21,
1072,-0.31,-0.205,
1073,-0.295,-0.18,
1074,-0.285,-0.185,
1075,-0.28,-0.19,
1076,-0.275,-0.205,
1077,-0.295,-0.215,
1078,-0.305,-0.215,
1079,-0.3,-0.215,
1080,-0.295,-0.19,
1081,-0.295,-0.21,
1082,-0.285,-0.2,
1083,-0.3,-0.215,
1084,-0.305,-0.22,
1085,-0.3,-0.225,
1086,-0.295,-0.215,
1087,-0.3,-0.215,
1088,-0.305,-0.23,
1089,-0.315,-0.225,
1090,-0.31,-0.225,
1091,-0.315,-0.21,
1092,-0.295,-0.21,
1093,-0.3,-0.215,
1094,-0.31,-0.23,
1095,-0.33,-0.235,
1096,-0.34,-0.23,
1097,-0.33,-0.22,
1098,-0.32,-0.215,
1099,-0.32,-0.23,
1100,-0.315,-0.235,
1101,-0.325,-0.25,
1102,-0.335,-0.245,
1103,-0.33,-0.24,
1104,-0.315,-0.22,
1105,-0.32,-0.23,
1106,-0.32,-0.23,
1107,-0.33,-0.235,
1108,-0.345,-0.24,
1109,-0.34,-0.235,
1110,-0.335,-0.22,
1111,-0.33,-0.23,
1112,-0.335,-0.24,
1113,-0.345,-0.255,
1114,-0.35,-0.245,
1115,-0.345,-0.235,
1116,-0.34,-0.22,
1117,-0.335,-0.23,
1118,-0.335,-0.24,
1119,-0.33,-0.25,
1120,-0.335,-0.255,
1121,-0.34,-0.24,
1122,-0.335,-0.225,
1123,-0.32,-0.23,
1124,-0.34,-0.235,
1125,-0.34,-0.24,
1126,-0.35,-0.245,
1127,-0.365,-0.235,
1128,-0.36,-0.23,
1129,-0.345,-0.235,
1130,-0.345,-0.24,
1131,-0.35,-0.245,
1132,-0.35,-0.235,
1133,-0.35,-0.235,
1134,-0.34,-0.23,
1135,-0.34,-0.24,
1136,-0.345,-0.235,
1137,-0.345,-0.245,
1138,-0.38,-0.25,
1139,-0.36,-0.23,
1140,-0.36,-0.21,
1141,-0.345,-0.23,
1142,-0.345,-0.235,
1143,-0.35,-0.245,
1144,-0.355,-0.25,
1145,-0.345,-0.245,
1146,-0.33,-0.23,
1147,-0.33,-0.23,
1148,-0.335,-0.235,
1149,-0.335,-0.25,
1150,-0.34,-0.25,
1151,-0.33,-0.24,
1152,-0.32,-0.225,
1153,-0.29,-0.23,
1154,-0.29,-0.235,
1155,-0.3,-0.24,
1156,-0.305,-0.245,
1157,-0.285,-0.24,
1158,-0.28,-0.225,
1159,-0.275,-0.225,
1160,-0.28,-0.23,
1161,-0.275,-0.23,
1162,-0.27,-0.225,
1163,-0.265,-0.205,
1164,-0.25,-0.21,
1165,-0.23,-0.22,
1166,-0.245,-0.205,
1167,-0.24,-0.22,
1168,-0.255,-0.22,
1169,-0.255,-0.21,
1170,-0.245,-0.19,
1171,-0.235,-0.18,
1172,-0.255,-0.18,
1173,-0.265,-0.185,
1174,-0.26,-0.19,
1175,-0.255,-0.19,
1176,-0.27,-0.185,
1177,-0.265,-0.205,
1178,-0.28,-0.2,
1179,-0.255,-0.22,
1180,-0.25,-0.22,
1181,-0.245,-0.22,
1182,-0.265,-0.21,
1183,-0.28,-0.225,
1184,-0.3,-0.22,
1185,-0.315,-0.24,
1186,-0.325,-0.245,
1187,-0.335,-0.235,
1188,-0.345,-0.23,
1189,-0.33,-0.245,
1190,-0.335,-0.245,
1191,-0.345,-0.25,
1192,-0.36,-0.255,
1193,-0.35,-0.23,
1194,-0.34,-0.225,
1195,-0.335,-0.23,
1196,-0.345,-0.245,
1197,-0.36,-0.255,
1198,-0.365,-0.265,
1199,-0.375,-0.255,
1200,-0.37,-0.245,
1201,-0.365,-0.26,
1202,-0.365,-0.25,
1203,-0.38,-0.26,
1204,-0.375,-0.27,
1205,-0.375,-0.24,
1206,-0.365,-0.245,
1207,-0.37,-0.25,
1208,-0.36,-0.25,
1209,-0.37,-0.25,
1210,-0.38,-0.265,
1211,-0.365,-0.255,
1212,-0.36,-0.245,
1213,-0.35,-0.255,
1214,-0.355,-0.265,
1215,-0.37,-0.28,
1216,-0.385,-0.305,
1217,-0.395,-0.32,
1218,-0.43,-0.35,
1219,-0.445,-0.38,
1220,-0.485,-0.39,
1221,-0.515,-0.345,
1222,-0.565,-0.24,
1223,-0.555,-0.11,
1224,-0.475,-0.02,
1225,-0.355,0.04,
1226,-0.22,0.11,
1227,-0.055,0.22,
1228,0.185,0.35,
1229,0.475,0.44,
1230,0.705,0.395,
1231,0.82,0.155,N
1232,0.78,-0.17,
1233,0.535,-0.38,
1234,0.145,-0.41,
1235,-0.2,-0.355,
1236,-0.42,-0.32,
1237,-0.5,-0.305,
1238,-0.48,-0.3,
1239,-0.45,-0.295,
1240,-0.41,-0.295,
1241,-0.4,-0.285,
1242,-0.39,-0.3,
1243,-0.39,-0.31,
1244,-0.4,-0.305,
1245,-0.405,-0.305,
1246,-0.425,-0.295,
1247,-0.425,-0.27,
1248,-0.405,-0.27,
1249,-0.395,-0.285,
1250,-0.405,-0.305,
1251,-0.405,-0.31,
1252,-0.415,-0.3,
1253,-0.405,-0.29,
1254,-0.385,-0.275,
1255,-0.39,-0.285,
1256,-0.395,-0.285,
1257,-0.395,-0.305,
1258,-0.395,-0.29,
1259,-0.395,-0.29,
1260,-0.385,-0.285,
1261,-0.39,-0.285,
1262,-0.39,-0.29,
1263,-0.4,-0.3,
1264,-0.425,-0.295,
1265,-0.41,-0.285,
1266,-0.4,-0.275,
1267,-0.395,-0.29,
1268,-0.4,-0.295,
1269,-0.405,-0.275,
1270,-0.425,-0.285,
1271,-0.415,-0.285,
1272,-0.405,-0.26,
1273,-0.405,-0.27,
1274,-0.405,-0.265,
1275,-0.41,-0.285,
1276,-0.415,-0.29,
1277,-0.405,-0.295,
1278,-0.42,-0.28,
1279,-0.405,-0.29,
1280,-0.41,-0.295,
1281,-0.41,-0.3,
1282,-0.42,-0.31,
1283,-0.415,-0.305,
1284,-0.405,-0.295,
1285,-0.395,-0.3,
1286,-0.395,-0.28,
1287,-0.395,-0.29,
1288,-0.4,-0.305,
1289,-0.395,-0.29,
1290,-0.395,-0.285,
1291,-0.405,-0.305,
1292,-0.405,-0.31,
1293,-0.42,-0.315,
1294,-0.435,-0.305,
1295,-0.415,-0.295,
1296,-0.405,-0.29,
1297,-0.395,-0.295,
1298,-0.39,-0.3,
1299,-0.415,-0.305,
1300,-0.405,-0.325,
1301,-0.405,-0.31,
1302,-0.4,-0.3,
1303,-0.395,-0.31,
1304,-0.395,-0.335,
1305,-0.405,-0.34,
1306,-0.42,-0.35,
1307,-0.415,-0.355,
1308,-0.4,-0.34,
1309,-0.395,-0.35,
1310,-0.4,-0.365,
1311,-0.405,-0.38,
1312,-0.425,-0.4,
1313,-0.425,-0.385,
1314,-0.425,-0.38,
1315,-0.42,-0.39,
1316,-0.425,-0.4,
1317,-0.45,-0.405,
1318,-0.445,-0.405,
1319,-0.45,-0.405,
1320,-0.435,-0.415,
1321,-0.445,-0.415,
1322,-0.47,-0.42,
1323,-0.455,-0.415,
1324,-0.46,-0.425,
1325,-0.44,-0.41,
1326,-0.435,-0.395,
1327,-0.425,-0.385,
1328,-0.43,-0.405,
1329,-0.445,-0.395,
1330,-0.45,-0.395,
1331,-0.445,-0.375,
1332,-0.43,-0.37,
1333,-0.42,-0.375,
1334,-0.41,-0.375,
1335,-0.425,-0.37,
1336,-0.42,-0.36,
1337,-0.405,-0.345,
1338,-0.38,-0.32,
1339,-0.37,-0.305,
1340,-0.365,-0.305,
1341,-0.365,-0.3,
1342,-0.365,-0.285,
1343,-0.345,-0.275,
1344,-0.33,-0.26,
1345,-0.315,-0.245,
1346,-0.305,-0.245,
1347,-0.305,-0.25,
1348,-0.32,-0.255,
1349,-0.31,-0.245,
1350,-0.31,-0.23,
1351,-0.305,-0.235,
1352,-0.31,-0.245,
1353,-0.315,-0.255,
1354,-0.32,-0.255,
1355,-0.315,-0.225,
1356,-0.305,-0.23,
1357,-0.305,-0.235,
1358,-0.295,-0.24,
1359,-0.31,-0.25,
1360,-0.32,-0.245,
1361,-0.31,-0.225,
1362,-0.315,-0.215,
1363,-0.295,-0.22,
1364,-0.3,-0.24,
1365,-0.305,-0.25,
1366,-0.3,-0.255,
1367,-0.285,-0.245,
1368,-0.28,-0.24,
1369,-0.29,-0.235,
1370,-0.295,-0.245,
1371,-0.305,-0.255,
1372,-0.325,-0.25,
1373,-0.305,-0.235,
1374,-0.3,-0.23,
1375,-0.3,-0.25,
1376,-0.315,-0.26,
1377,-0.325,-0.275,
1378,-0.335,-0.28,
1379,-0.325,-0.275,
1380,-0.315,-0.26,
1381,-0.32,-0.27,
1382,-0.335,-0.255,
1383,-0.33,-0.265,
1384,-0.34,-0.255,
1385,-0.325,-0.265,
1386,-0.325,-0.26,
1387,-0.32,-0.265,
1388,-0.315,-0.265,
1389,-0.335,-0.275,
1390,-0.335,-0.27,
1391,-0.345,-0.265,
1392,-0.335,-0.255,
1393,-0.325,-0.255,
1394,-0.33,-0.265,
1395,-0.315,-0.275,
1396,-0.335,-0.29,
1397,-0.33,-0.275,
1398,-0.33,-0.26,
1399,-0.33,-0.27,
1400,-0.33,-0.265,
1401,-0.335,-0.27,
1402,-0.34,-0.265,
1403,-0.33,-0.265,
1404,-0.32,-0.25,
1405,-0.315,-0.265,
1406,-0.325,-0.265,
1407,-0.335,-0.27,
1408,-0.355,-0.27,
1409,-0.345,-0.265,
1410,-0.34,-0.255,
1411,-0.335,-0.26,
1412,-0.32,-0.255,
1413,-0.325,-0.27,
1414,-0.35,-0.27,
1415,-0.33,-0.285,
1416,-0.315,-0.265,
1417,-0.315,-0.26,
1418,-0.33,-0.265,
1419,-0.33,-0.27,
1420,-0.335,-0.265,
1421,-0.335,-0.26,
1422,-0.33,-0.25,
1423,-0.33,-0.265,
1424,-0.33,-0.265,
1425,-0.34,-0.27,
1426,-0.34,-0.265,
1427,-0.34,-0.255,
1428,-0.325,-0.245,
1429,-0.325,-0.255,
1430,-0.325,-0.275,
1431,-0.345,-0.275,
1432,-0.35,-0.275,
1433,-0.34,-0.255,
1434,-0.33,-0.255,
1435,-0.32,-0.26,
1436,-0.31,-0.265,
1437,-0.305,-0.285,
1438,-0.305,-0.28,
1439,-0.275,-0.265,
1440,-0.27,-0.26,
1441,-0.255,-0.255,
1442,-0.26,-0.25,
1443,-0.265,-0.255,
1444,-0.26,-0.25,
1445,-0.25,-0.24,
1446,-0.235,-0.23,
1447,-0.235,-0.235,
1448,-0.22,-0.225,
1449,-0.235,-0.235,
1450,-0.235,-0.24,
1451,-0.22,-0.225,
1452,-0.23,-0.215,
1453,-0.225,-0.235,
1454,-0.235,-0.23,
1455,-0.245,-0.225,
1456,-0.255,-0.215,
1457,-0.24,-0.205,
1458,-0.23,-0.2,
1459,-0.23,-0.21,
1460,-0.25,-0.225,
1461,-0.255,-0.23,
1462,-0.25,-0.225,
1463,-0.23,-0.215,
1464,-0.205,-0.21,
1465,-0.195,-0.235,
1466,-0.21,-0.24,
1467,-0.23,-0.255,
1468,-0.27,-0.245,
1469,-0.27,-0.235,
1470,-0.285,-0.23,
1471,-0.285,-0.235,
1472,-0.31,-0.245,
1473,-0.33,-0.27,
1474,-0.34,-0.26,
1475,-0.34,-0.25,
1476,-0.345,-0.24,
1477,-0.35,-0.24,
1478,-0.35,-0.255,
1479,-0.34,-0.26,
1480,-0.355,-0.265,
1481,-0.345,-0.255,
1482,-0.34,-0.245,
1483,-0.34,-0.245,
1484,-0.345,-0.26,
1485,-0.355,-0.255,
1486,-0.37,-0.26,
1487,-0.355,-0.255,
1488,-0.37,-0.24,
1489,-0.345,-0.24,
1490,-0.34,-0.26,
1491,-0.36,-0.26,
1492,-0.38,-0.25,
1493,-0.36,-0.24,
1494,-0.345,-0.235,
1495,-0.35,-0.24,
1496,-0.35,-0.255,
1497,-0.355,-0.27,
1498,-0.38,-0.285,
1499,-0.39,-0.29,
1500,-0.395,-0.31,
1501,-0.425,-0.33,
1502,-0.455,-0.365,
1503,-0.475,-0.37,
1504,-0.51,-0.35,
1505,-0.545,-0.26,
1506,-0.54,-0.135,
1507,-0.495,-0.02,
1508,-0.405,0.035,
1509,-0.295,0.095,
1510,-0.16,0.185,
1511,0.04,0.315,
1512,0.315,0.45,
1513,0.595,0.515,
1514,0.8,0.45,
1515,0.885,0.175,N
1516,0.795,-0.18,
1517,0.52,-0.385,
1518,0.13,-0.395,
1519,-0.215,-0.345,
1520,-0.425,-0.31,
1521,-0.5,-0.29,
1522,-0.49,-0.275,
1523,-0.45,-0.265,
1524,-0.4,-0.235,
1525,-0.39,-0.25,
1526,-0.395,-0.265,
1527,-0.395,-0.255,
1528,-0.4,-0.245,
1529,-0.39,-0.24,
1530,-0.38,-0.24,
1531,-0.385,-0.25,
1532,-0.385,-0.26,
1533,-0.4,-0.265,
1534,-0.41,-0.275,
1535,-0.41,-0.255,
1536,-0.39,-0.24,
1537,-0.39,-0.245,
1538,-0.405,-0.26,
1539,-0.405,-0.26,
1540,-0.415,-0.265,
1541,-0.41,-0.25,
1542,-0.395,-0.25,
1543,-0.395,-0.245,
1544,-0.4,-0.25,
1545,-0.415,-0.265,
1546,-0.415,-0.255,
1547,-0.415,-0.25,
1548,-0.4,-0.245,
1549,-0.39,-0.245,
1550,-0.39,-0.255,
1551,-0.41,-0.26,
1552,-0.415,-0.25,
1553,-0.405,-0.24,
1554,-0.395,-0.215,
1555,-0.395,-0.23,
1556,-0.395,-0.25,
1557,-0.405,-0.25,
1558,-0.41,-0.255,
1559,-0.41,-0.24,
1560,-0.4,-0.22,
1561,-0.39,-0.235,
1562,-0.395,-0.235,
1563,-0.41,-0.24,
1564,-0.425,-0.255,
1565,-0.415,-0.245,
1566,-0.405,-0.225,
1567,-0.41,-0.23,
1568,-0.405,-0.235,
1569,-0.415,-0.24,
1570,-0.425,-0.24,
1571,-0.425,-0.24,
1572,-0.41,-0.23,
1573,-0.395,-0.245,
1574,-0.39,-0.255,
1575,-0.4,-0.25,
1576,-0.41,-0.25,
1577,-0.41,-0.235,
1578,-0.4,-0.24,
1579,-0.39,-0.235,
1580,-0.41,-0.255,
1581,-0.42,-0.255,
1582,-0.42,-0.255,
1583,-0.415,-0.25,
1584,-0.415,-0.235,
1585,-0.405,-0.26,
1586,-0.42,-0.255,
1587,-0.415,-0.27,
1588,-0.425,-0.285,
1589,-0.41,-0.285,
1590,-0.4,-0.28,
1591,-0.405,-0.285,
1592,-0.4,-0.285,
1593,-0.4,-0.305,
1594,-0.41,-0.295,
1595,-0.4,-0.285,
1596,-0.395,-0.29,
1597,-0.395,-0.305,
1598,-0.405,-0.32,
1599,-0.41,-0.335,
1600,-0.425,-0.34,
1601,-0.425,-0.315,
1602,-0.41,-0.315,
1603,-0.41,-0.33,
1604,-0.42,-0.345,
1605,-0.43,-0.35,
1606,-0.445,-0.355,
1607,-0.44,-0.365,
1608,-0.435,-0.355,
1609,-0.43,-0.365,
1610,-0.43,-0.37,
1611,-0.45,-0.375,
1612,-0.445,-0.375,
1613,-0.445,-0.37,
1614,-0.435,-0.355,
1615,-0.435,-0.36,
1616,-0.445,-0.34,
1617,-0.44,-0.34,
1618,-0.45,-0.33,
1619,-0.43,-0.315,
1620,-0.43,-0.29,
1621,-0.415,-0.275,
1622,-0.4,-0.265,
1623,-0.4,-0.26,
1624,-0.385,-0.245,
1625,-0.365,-0.225,
1626,-0.335,-0.205,
1627,-0.33,-0.2,
1628,-0.325,-0.19,
1629,-0.33,-0.2,
1630,-0.33,-0.185,
1631,-0.31,-0.175,
1632,-0.295,-0.16,
1633,-0.285,-0.155,
1634,-0.29,-0.165,
1635,-0.29,-0.16,
1636,-0.31,-0.17,
1637,-0.295,-0.15,
1638,-0.285,-0.145,
1639,-0.28,-0.15,
1640,-0.3,-0.145,
1641,-0.29,-0.145,
1642,-0.295,-0.155,
1643,-0.29,-0.15,
1644,-0.28,-0.135,
1645,-0.275,-0.145,
1646,-0.275,-0.145,
1647,-0.29,-0.15,
1648,-0.29,-0.145,
1649,-0.285,-0.14,
1650,-0.27,-0.13,
1651,-0.27,-0.135,
1652,-0.27,-0.14,
1653,-0.275,-0.145,
1654,-0.29,-0.165,
1655,-0.285,-0.155,
1656,-0.275,-0.145,
1657,-0.275,-0.15,
1658,-0.29,-0.16,
1659,-0.295,-0.16,
1660,-0.305,-0.16,
1661,-0.295,-0.145,
1662,-0.295,-0.14,
1663,-0.285,-0.15,
1664,-0.29,-0.165,
1665,-0.3,-0.17,
1666,-0.305,-0.165,
1667,-0.31,-0.165,
1668,-0.295,-0.15,
1669,-0.3,-0.15,
1670,-0.305,-0.165,
1671,-0.31,-0.17,
1672,-0.325,-0.18,
1673,-0.325,-0.165,
1674,-0.315,-0.155,
1675,-0.31,-0.16,
1676,-0.315,-0.165,
1677,-0.315,-0.175,
1678,-0.325,-0.18,
1679,-0.32,-0.165,
1680,-0.31,-0.15,
1681,-0.32,-0.17,
1682,-0.315,-0.17,
1683,-0.33,-0.185,
1684,-0.33,-0.175,
1685,-0.32,-0.175,
1686,-0.31,-0.16,
1687,-0.31,-0.165,
1688,-0.31,-0.17,
1689,-0.33,-0.18,
1690,-0.335,-0.175,
1691,-0.33,-0.17,
1692,-0.32,-0.16,
1693,-0.325,-0.16,
1694,-0.325,-0.17,
1695,-0.33,-0.19,
1696,-0.335,-0.165,
1697,-0.33,-0.16,
1698,-0.325,-0.155,
1699,-0.325,-0.16,
1700,-0.32,-0.155,
1701,-0.325,-0.165,
1702,-0.33,-0.185,
1703,-0.325,-0.175,
1704,-0.315,-0.15,
1705,-0.305,-0.155,
1706,-0.325,-0.165,
1707,-0.315,-0.17,
1708,-0.335,-0.17,
1709,-0.33,-0.165,
1710,-0.31,-0.15,
1711,-0.32,-0.16,
1712,-0.33,-0.17,
1713,-0.33,-0.175,
1714,-0.335,-0.18,
1715,-0.33,-0.155,
1716,-0.33,-0.15,
1717,-0.32,-0.145,
1718,-0.32,-0.16,
1719,-0.33,-0.165,
1720,-0.33,-0.16,
1721,-0.325,-0.16,
1722,-0.315,-0.145,
1723,-0.315,-0.15,
1724,-0.315,-0.15,
1725,-0.33,-0.16,
1726,-0.33,-0.16,
1727,-0.32,-0.15,
1728,-0.315,-0.15,
1729,-0.305,-0.15,
1730,-0.305,-0.155,
1731,-0.295,-0.16,
1732,-0.315,-0.16,
1733,-0.3,-0.15,
1734,-0.275,-0.13,
1735,-0.255,-0.15,
1736,-0.255,-0.155,
1737,-0.26,-0.16,
1738,-0.265,-0.15,
1739,-0.255,-0.125,
1740,-0.235,-0.12,
1741,-0.23,-0.115,
1742,-0.225,-0.125,
1743,-0.22,-0.135,
1744,-0.22,-0.14,
1745,-0.215,-0.13,
1746,-0.2,-0.105,
1747,-0.205,-0.105,
1748,-0.205,-0.1,
1749,-0.225,-0.105,
1750,-0.235,-0.09,
1751,-0.24,-0.08,
1752,-0.23,-0.075,
1753,-0.215,-0.09,
1754,-0.24,-0.09,
1755,-0.24,-0.1,
1756,-0.25,-0.1,
1757,-0.235,-0.095,
1758,-0.21,-0.09,
1759,-0.2,-0.11,
1760,-0.22,-0.125,
1761,-0.255,-0.13,
1762,-0.275,-0.12,
1763,-0.285,-0.12,
1764,-0.3,-0.11,
1765,-0.305,-0.11,
1766,-0.32,-0.12,
1767,-0.33,-0.13,
1768,-0.325,-0.14,
1769,-0.32,-0.145,
1770,-0.33,-0.125,
1771,-0.33,-0.13,
1772,-0.335,-0.15,
1773,-0.34,-0.145,
1774,-0.345,-0.14,
1775,-0.34,-0.14,
1776,-0.335,-0.12,
1777,-0.32,-0.135,
1778,-0.325,-0.145,
1779,-0.335,-0.16,
1780,-0.345,-0.15,
1781,-0.345,-0.135,
1782,-0.345,-0.125,
1783,-0.335,-0.135,
1784,-0.34,-0.145,
1785,-0.345,-0.15,
1786,-0.355,-0.16,
1787,-0.34,-0.145,
1788,-0.34,-0.135,
1789,-0.34,-0.135,
1790,-0.34,-0.125,
1791,-0.345,-0.16,
1792,-0.355,-0.175,
1793,-0.365,-0.195,
1794,-0.37,-0.21,
1795,-0.405,-0.23,
1796,-0.445,-0.27,
1797,-0.48,-0.29,
1798,-0.495,-0.28,
1799,-0.52,-0.195,
1800,-0.535,-0.05,
1801,-0.505,0.085,
1802,-0.415,0.195,
1803,-0.28,0.305,
1804,-0.135,0.42,
1805,0.065,0.565,
1806,0.3,0.705,
1807,0.58,0.8,
1808,0.81,0.795,
1809,0.945,0.595,N
1810,0.92,0.235,
1811,0.775,-0.075,
1812,0.445,-0.19,
1813,0.02,-0.185,
1814,-0.295,-0.155,
1815,-0.445,-0.17,
1816,-0.47,-0.165,
1817,-0.425,-0.155,
1818,-0.38,-0.145,
1819,-0.36,-0.155,
1820,-0.36,-0.19,
1821,-0.37,-0.2,
1822,-0.38,-0.195,
1823,-0.38,-0.175,
1824,-0.375,-0.175,
1825,-0.37,-0.18,
1826,-0.365,-0.185,
1827,-0.37,-0.2,
1828,-0.385,-0.195,
1829,-0.385,-0.2,
1830,-0.375,-0.195,
1831,-0.37,-0.19,
1832,-0.37,-0.195,
1833,-0.385,-0.2,
1834,-0.395,-0.2,
1835,-0.385,-0.19,
1836,-0.385,-0.18,
1837,-0.39,-0.185,
1838,-0.385,-0.195,
1839,-0.395,-0.21,
1840,-0.41,-0.21,
1841,-0.4,-0.175,
1842,-0.395,-0.19,
1843,-0.38,-0.185,
1844,-0.395,-0.185,
1845,-0.395,-0.195,
1846,-0.4,-0.2,
1847,-0.4,-0.195,
1848,-0.395,-0.18,
1849,-0.39,-0.19,
1850,-0.39,-0.195,
1851,-0.395,-0.19,
1852,-0.405,-0.195,
1853,-0.39,-0.175,
1854,-0.385,-0.175,
1855,-0.375,-0.185,
1856,-0.375,-0.19,
1857,-0.38,-0.195,
1858,-0.39,-0.19,
1859,-0.385,-0.185,
1860,-0.37,-0.17,
1861,-0.37,-0.17,
1862,-0.37,-0.19,
1863,-0.375,-0.2,
1864,-0.385,-0.2,
1865,-0.37,-0.18,
1866,-0.39,-0.175,
1867,-0.375,-0.195,
1868,-0.37,-0.175,
1869,-0.38,-0.19,
1870,-0.39,-0.19,
1871,-0.39,-0.19,
1872,-0.385,-0.18,
1873,-0.375,-0.19,
1874,-0.375,-0.21,
1875,-0.385,-0.205,
1876,-0.395,-0.2,
1877,-0.39,-0.21,
1878,-0.385,-0.195,
1879,-0.375,-0.205,
1880,-0.38,-0.215,
1881,-0.385,-0.23,
1882,-0.39,-0.215,
1883,-0.38,-0.225,
1884,-0.38,-0.205,
1885,-0.37,-0.215,
1886,-0.37,-0.235,
1887,-0.365,-0.245,
1888,-0.39,-0.245,
1889,-0.365,-0.24,
1890,-0.365,-0.245,
1891,-0.36,-0.235,
1892,-0.375,-0.26,
1893,-0.38,-0.265,
1894,-0.4,-0.27,
1895,-0.39,-0.265,
1896,-0.375,-0.265,
1897,-0.375,-0.27,
1898,-0.37,-0.285,
1899,-0.385,-0.3,
1900,-0.39,-0.295,
1901,-0.39,-0.295,
1902,-0.39,-0.295,
1903,-0.39,-0.305,
1904,-0.375,-0.31,
1905,-0.385,-0.32,
1906,-0.395,-0.325,
1907,-0.38,-0.32,
1908,-0.37,-0.31,
1909,-0.375,-0.32,
1910,-0.375,-0.32,
1911,-0.39,-0.325,
1912,-0.405,-0.31,
1913,-0.375,-0.28,
1914,-0.37,-0.28,
1915,-0.36,-0.28,
1916,-0.375,-0.265,
1917,-0.385,-0.265,
1918,-0.38,-0.25,
1919,-0.37,-0.225,
1920,-0.36,-0.2,
1921,-0.345,-0.195,
1922,-0.345,-0.19,
1923,-0.33,-0.18,
1924,-0.33,-0.17,
1925,-0.315,-0.15,
1926,-0.31,-0.135,
1927,-0.295,-0.115,
1928,-0.285,-0.125,
1929,-0.285,-0.13,
1930,-0.295,-0.12,
1931,-0.28,-0.105,
1932,-0.27,-0.1,
1933,-0.28,-0.1,
1934,-0.28,-0.1,
1935,-0.28,-0.115,
1936,-0.29,-0.12,
1937,-0.29,-0.105,
1938,-0.28,-0.1,
1939,-0.275,-0.105,
1940,-0.28,-0.115,
1941,-0.285,-0.12,
1942,-0.29,-0.11,
1943,-0.29,-0.105,
1944,-0.28,-0.095,
1945,-0.28,-0.1,
1946,-0.285,-0.11,
1947,-0.29,-0.12,
1948,-0.3,-0.12,
1949,-0.295,-0.115,
1950,-0.285,-0.105,
1951,-0.28,-0.105,
1952,-0.285,-0.095,
1953,-0.285,-0.105,
1954,-0.295,-0.12,
1955,-0.285,-0.115,
1956,-0.28,-0.105,
1957,-0.275,-0.11,
1958,-0.28,-0.125,
1959,-0.29,-0.115,
1960,-0.31,-0.13,
1961,-0.305,-0.115,
1962,-0.285,-0.095,
1963,-0.27,-0.1,
1964,-0.27,-0.11,
1965,-0.275,-0.115,
1966,-0.285,-0.115,
1967,-0.285,-0.105,
1968,-0.27,-0.1,
1969,-0.265,-0.11,
1970,-0.265,-0.1,
1971,-0.265,-0.1,
1972,-0.28,-0.105,
1973,-0.265,-0.095,
1974,-0.245,-0.095,
1975,-0.235,-0.095,
1976,-0.235,-0.11,
1977,-0.25,-0.115,
1978,-0.25,-0.11,
1979,-0.245,-0.105,
1980,-0.215,-0.105,
1981,-0.22,-0.115,
1982,-0.245,-0.115,
1983,-0.255,-0.135,
1984,-0.23,-0.125,
1985,-0.205,-0.135,
1986,-0.21,-0.125,
1987,-0.22,-0.13,
1988,-0.23,-0.15,
1989,-0.24,-0.155,
1990,-0.24,-0.165,
1991,-0.245,-0.165,
1992,-0.25,-0.17,
1993,-0.27,-0.175,
1994,-0.285,-0.17,
1995,-0.315,-0.175,
1996,-0.32,-0.17,
1997,-0.32,-0.165,
1998,-0.31,-0.16,
1999,-0.33,-0.16,
2000,-0.34,-0.17,
2001,-0.345,-0.18,
2002,-0.36,-0.17,
2003,-0.365,-0.155,
2004,-0.36,-0.155,
2005,-0.35,-0.16,
2006,-0.355,-0.16,
2007,-0.375,-0.175,
2008,-0.385,-0.17,
2009,-0.375,-0.155,
2010,-0.37,-0.15,
2011,-0.365,-0.16,
2012,-0.365,-0.155,
2013,-0.37,-0.165,
2014,-0.38,-0.16,
2015,-0.36,-0.15,
2016,-0.35,-0.15,
2017,-0.355,-0.145,
2018,-0.355,-0.155,
2019,-0.35,-0.165,
2020,-0.365,-0.155,
2021,-0.35,-0.135,
2022,-0.35,-0.13,
2023,-0.34,-0.145,
2024,-0.355,-0.155,
2025,-0.35,-0.16,
2026,-0.375,-0.16,
2027,-0.365,-0.175,
2028,-0.375,-0.19,
2029,-0.4,-0.235,
2030,-0.43,-0.25,
2031,-0.475,-0.295,
2032,-0.52,-0.315,
2033,-0.52,-0.295,
2034,-0.55,-0.19,
2035,-0.57,-0.085,
2036,-0.54,0.06,
2037,-0.445,0.175,
2038,-0.305,0.265,
2039,-0.14,0.38,
2040,0.025,0.485,
2041,0.26,0.59,
2042,0.51,0.665,
2043,0.735,0.665,
2044,0.845,0.5,A
2045,0.875,0.205,
2046,0.735,-0.075,
2047,0.4,-0.215,
2048,-0.025,-0.205,
2049,-0.335,-0.18,
2050,-0.48,-0.175,
2051,-0.47,-0.165,
2052,-0.415,-0.145,
2053,-0.375,-0.145,
2054,-0.365,-0.16,
2055,-0.385,-0.165,
2056,-0.4,-0.17,
2057,-0.38,-0.155,
2058,-0.39,-0.155,
2059,-0.375,-0.155,
2060,-0.385,-0.17,
2061,-0.395,-0.175,
2062,-0.405,-0.17,
2063,-0.39,-0.155,
2064,-0.38,-0.155,
2065,-0.385,-0.16,
2066,-0.385,-0.165,
2067,-0.395,-0.18,
2068,-0.4,-0.175,
2069,-0.405,-0.17,
2070,-0.4,-0.16,
2071,-0.39,-0.16,
2072,-0.39,-0.17,
2073,-0.395,-0.18,
2074,-0.4,-0.18,
2075,-0.39,-0.17,
2076,-0.385,-0.165,
2077,-0.39,-0.165,
2078,-0.385,-0.175,
2079,-0.41,-0.18,
2080,-0.42,-0.185,
2081,-0.405,-0.17,
2082,-0.41,-0.16,
2083,-0.39,-0.165,
2084,-0.39,-0.175,
2085,-0.39,-0.175,
2086,-0.4,-0.175,
2087,-0.4,-0.18,
2088,-0.39,-0.17,
2089,-0.375,-0.16,
2090,-0.38,-0.17,
2091,-0.395,-0.18,
2092,-0.4,-0.185,
2093,-0.39,-0.17,
2094,-0.4,-0.16,
2095,-0.39,-0.18,
2096,-0.395,-0.18,
2097,-0.41,-0.185,
2098,-0.415,-0.185,
2099,-0.405,-0.165,
2100,-0.385,-0.155,
2101,-0.385,-0.17,
2102,-0.38,-0.175,
2103,-0.4,-0.195,
2104,-0.4,-0.195,
2105,-0.395,-0.19,
2106,-0.39,-0.175,
2107,-0.38,-0.175,
2108,-0.375,-0.19,
2109,-0.395,-0.19,
2110,-0.395,-0.19,
2111,-0.385,-0.185,
2112,-0.38,-0.19,
2113,-0.375,-0.215,
2114,-0.385,-0.22,
2115,-0.39,-0.215,
2116,-0.4,-0.225,
2117,-0.4,-0.215,
2118,-0.385,-0.2,
2119,-0.38,-0.23,
2120,-0.395,-0.225,
2121,-0.39,-0.245,
2122,-0.4,-0.24,
2123,-0.395,-0.245,
2124,-0.385,-0.22,
2125,-0.38,-0.245,
2126,-0.385,-0.26,
2127,-0.395,-0.28,
2128,-0.405,-0.28,
2129,-0.4,-0.285,
2130,-0.39,-0.27,
2131,-0.38,-0.285,
2132,-0.38,-0.295,
2133,-0.385,-0.305,
2134,-0.405,-0.305,
2135,-0.395,-0.315,
2136,-0.4,-0.305,
2137,-0.39,-0.31,
2138,-0.4,-0.33,
2139,-0.405,-0.325,
2140,-0.425,-0.33,
2141,-0.42,-0.315,
2142,-0.405,-0.31,
2143,-0.4,-0.315,
2144,-0.405,-0.31,
2145,-0.405,-0.32,
2146,-0.415,-0.305,
2147,-0.4,-0.29,
2148,-0.39,-0.275,
2149,-0.38,-0.27,
2150,-0.385,-0.265,
2151,-0.395,-0.265,
2152,-0.405,-0.255,
2153,-0.39,-0.245,
2154,-0.37,-0.225,
2155,-0.37,-0.215,
2156,-0.37,-0.215,
2157,-0.385,-0.215,
2158,-0.37,-0.21,
2159,-0.355,-0.205,
2160,-0.345,-0.185,
2161,-0.34,-0.18,
2162,-0.335,-0.19,
2163,-0.34,-0.19,
2164,-0.355,-0.17,
2165,-0.335,-0.155,
2166,-0.325,-0.14,
2167,-0.31,-0.145,
2168,-0.305,-0.165,
2169,-0.305,-0.16,
2170,-0.32,-0.16,
2171,-0.315,-0.15,
2172,-0.31,-0.145,
2173,-0.305,-0.14,
2174,-0.305,-0.15,
2175,-0.33,-0.15,
2176,-0.325,-0.17,
2177,-0.345,-0.155,
2178,-0.325,-0.145,
2179,-0.315,-0.13,
2180,-0.315,-0.14,
2181,-0.305,-0.15,
2182,-0.31,-0.145,
2183,-0.31,-0.15,
2184,-0.3,-0.135,
2185,-0.305,-0.14,
2186,-0.305,-0.155,
2187,-0.315,-0.15,
2188,-0.32,-0.165,
2189,-0.325,-0.145,
2190,-0.315,-0.145,
2191,-0.305,-0.155,
2192,-0.315,-0.16,
2193,-0.325,-0.16,
2194,-0.325,-0.175,
2195,-0.33,-0.155,
2196,-0.315,-0.155,
2197,-0.315,-0.15,
2198,-0.31,-0.16,
2199,-0.33,-0.165,
2200,-0.34,-0.165,
2201,-0.335,-0.175,
2202,-0.33,-0.165,
2203,-0.345,-0.165,
2204,-0.355,-0.165,
2205,-0.365,-0.17,
2206,-0.37,-0.165,
2207,-0.345,-0.16,
2208,-0.34,-0.16,
2209,-0.34,-0.165,
2210,-0.345,-0.17,
2211,-0.36,-0.195,
2212,-0.365,-0.185,
2213,-0.36,-0.18,
2214,-0.36,-0.17,
2215,-0.345,-0.165,
2216,-0.355,-0.185,
2217,-0.365,-0.18,
2218,-0.35,-0.185,
2219,-0.36,-0.17,
2220,-0.35,-0.175,
2221,-0.34,-0.175,
2222,-0.345,-0.175,
2223,-0.355,-0.18,
2224,-0.37,-0.175,
2225,-0.35,-0.155,
2226,-0.35,-0.16,
2227,-0.35,-0.17,
2228,-0.345,-0.18,
2229,-0.35,-0.2,
2230,-0.355,-0.195,
2231,-0.36,-0.165,
2232,-0.345,-0.16,
2233,-0.355,-0.16,
2234,-0.35,-0.165,
2235,-0.36,-0.185,
2236,-0.37,-0.19,
2237,-0.355,-0.18,
2238,-0.355,-0.17,
2239,-0.35,-0.17,
2240,-0.355,-0.17,
2241,-0.36,-0.18,
2242,-0.39,-0.18,
2243,-0.385,-0.17,
2244,-0.36,-0.18,
2245,-0.36,-0.18,
2246,-0.37,-0.2,
2247,-0.37,-0.195,
2248,-0.39,-0.195,
2249,-0.375,-0.155,
2250,-0.37,-0.145,
2251,-0.35,-0.165,
2252,-0.34,-0.18,
2253,-0.345,-0.185,
2254,-0.36,-0.18,
2255,-0.36,-0.17,
2256,-0.35,-0.16,
2257,-0.35,-0.16,
2258,-0.335,-0.17,
2259,-0.36,-0.18,
2260,-0.365,-0.19,
2261,-0.365,-0.18,
2262,-0.36,-0.165,
2263,-0.36,-0.17,
2264,-0.365,-0.185,
2265,-0.375,-0.195,
2266,-0.385,-0.185,
2267,-0.385,-0.185,
2268,-0.365,-0.185,
2269,-0.37,-0.185,
2270,-0.375,-0.19,
2271,-0.37,-0.18,
2272,-0.375,-0.19,
2273,-0.365,-0.19,
2274,-0.355,-0.18,
2275,-0.355,-0.19,
2276,-0.36,-0.19,
2277,-0.365,-0.195,
2278,-0.37,-0.195,
2279,-0.36,-0.185,
2280,-0.35,-0.175,
2281,-0.34,-0.195,
2282,-0.345,-0.18,
2283,-0.34,-0.18,
2284,-0.35,-0.185,
2285,-0.345,-0.19,
2286,-0.35,-0.175,
2287,-0.36,-0.19,
2288,-0.35,-0.19,
2289,-0.36,-0.21,
2290,-0.37,-0.205,
2291,-0.36,-0.185,
2292,-0.36,-0.18,
2293,-0.355,-0.18,
2294,-0.36,-0.19,
2295,-0.375,-0.215,
2296,-0.375,-0.22,
2297,-0.37,-0.205,
2298,-0.35,-0.195,
2299,-0.355,-0.19,
2300,-0.36,-0.195,
2301,-0.365,-0.215,
2302,-0.375,-0.235,
2303,-0.37,-0.21,
2304,-0.365,-0.2,
2305,-0.36,-0.21,
2306,-0.355,-0.205,
2307,-0.36,-0.215,
2308,-0.36,-0.215,
2309,-0.35,-0.205,
2310,-0.34,-0.2,
2311,-0.345,-0.19,
2312,-0.345,-0.22,
2313,-0.355,-0.225,
2314,-0.36,-0.225,
2315,-0.36,-0.205,
2316,-0.365,-0.2,
2317,-0.345,-0.205,
2318,-0.355,-0.205,
2319,-0.35,-0.21,
2320,-0.36,-0.21,
2321,-0.355,-0.195,
2322,-0.36,-0.195,
2323,-0.345,-0.195,
2324,-0.335,-0.2,
2325,-0.33,-0.225,
2326,-0.33,-0.225,
2327,-0.31,-0.205,
2328,-0.305,-0.19,
2329,-0.3,-0.195,
2330,-0.305,-0.19,
2331,-0.295,-0.2,
2332,-0.305,-0.185,
2333,-0.285,-0.18,
2334,-0.275,-0.165,
2335,-0.265,-0.17,
2336,-0.255,-0.18,
2337,-0.255,-0.175,
2338,-0.26,-0.17,
2339,-0.265,-0.165,
2340,-0.255,-0.15,
2341,-0.255,-0.155,
2342,-0.26,-0.165,
2343,-0.28,-0.17,
2344,-0.29,-0.165,
2345,-0.28,-0.165,
2346,-0.27,-0.155,
2347,-0.255,-0.17,
2348,-0.275,-0.18,
2349,-0.29,-0.17,
2350,-0.32,-0.165,
2351,-0.3,-0.16,
2352,-0.295,-0.16,
2353,-0.27,-0.18,
2354,-0.265,-0.19,
2355,-0.27,-0.205,
2356,-0.285,-0.19,
2357,-0.3,-0.19,
2358,-0.31,-0.17,
2359,-0.315,-0.185,
2360,-0.32,-0.19,
2361,-0.35,-0.195,
2362,-0.37,-0.225,
2363,-0.365,-0.215,
2364,-0.365,-0.2,
2365,-0.365,-0.205,
2366,-0.37,-0.205,
2367,-0.37,-0.205,
2368,-0.37,-0.22,
2369,-0.38,-0.21,
2370,-0.36,-0.21,
2371,-0.375,-0.21,
2372,-0.375,-0.215,
2373,-0.4,-0.225,
2374,-0.42,-0.235,
2375,-0.405,-0.23,
2376,-0.4,-0.205,
2377,-0.385,-0.215,
2378,-0.38,-0.225,
2379,-0.4,-0.225,
2380,-0.415,-0.22,
2381,-0.405,-0.22,
2382,-0.395,-0.215,
2383,-0.395,-0.225,
2384,-0.395,-0.225,
2385,-0.41,-0.255,
2386,-0.43,-0.275,
2387,-0.44,-0.29,
2388,-0.455,-0.29,
2389,-0.49,-0.315,
2390,-0.485,-0.33,
2391,-0.52,-0.305,
2392,-0.57,-0.245,
2393,-0.575,-0.115,
2394,-0.525,-0.025,
2395,-0.42,0.03,
2396,-0.305,0.08,
2397,-0.19,0.155,
2398,-0.02,0.265,
2399,0.22,0.385,
2400,0.485,0.5,
2401,0.715,0.545,
2402,0.845,0.45,N
2403,0.885,0.215,
2404,0.79,-0.09,
2405,0.56,-0.325,
2406,0.225,-0.39,
2407,-0.07,-0.385,
2408,-0.285,-0.365,
2409,-0.425,-0.335,
2410,-0.5,-0.295,
2411,-0.55,-0.285,
2412,-0.535,-0.27,
2413,-0.5,-0.265,
2414,-0.465,-0.27,
2415,-0.45,-0.275,
2416,-0.45,-0.285,
2417,-0.435,-0.265,
2418,-0.42,-0.25,
2419,-0.41,-0.26,
2420,-0.41,-0.26,
2421,-0.415,-0.265,
2422,-0.42,-0.27,
2423,-0.425,-0.265,
2424,-0.42,-0.245,
2425,-0.43,-0.26,
2426,-0.43,-0.255,
2427,-0.44,-0.28,
2428,-0.45,-0.26,
2429,-0.45,-0.25,
2430,-0.43,-0.25,
2431,-0.43,-0.255,
2432,-0.43,-0.255,
2433,-0.445,-0.26,
2434,-0.445,-0.26,
2435,-0.44,-0.255,
2436,-0.425,-0.225,
2437,-0.43,-0.24,
2438,-0.43,-0.245,
2439,-0.425,-0.265,
2440,-0.445,-0.275,
2441,-0.445,-0.25,
2442,-0.43,-0.245,
2443,-0.435,-0.23,
2444,-0.435,-0.24,
2445,-0.445,-0.255,
2446,-0.445,-0.25,
2447,-0.435,-0.25,
2448,-0.43,-0.245,
2449,-0.425,-0.235,
2450,-0.43,-0.24,
2451,-0.43,-0.25,
2452,-0.44,-0.25,
2453,-0.42,-0.245,
2454,-0.43,-0.22,
2455,-0.425,-0.245,
2456,-0.43,-0.245,
2457,-0.44,-0.24,
2458,-0.44,-0.255,
2459,-0.43,-0.245,
2460,-0.43,-0.225,
2461,-0.415,-0.24,
2462,-0.425,-0.25,
2463,-0.43,-0.26,
2464,-0.455,-0.265,
2465,-0.445,-0.255,
2466,-0.445,-0.24,
2467,-0.43,-0.25,
2468,-0.43,-0.25,
2469,-0.44,-0.265,
2470,-0.44,-0.26,
2471,-0.435,-0.26,
2472,-0.43,-0.265,
2473,-0.415,-0.275,
2474,-0.415,-0.27,
2475,-0.425,-0.27,
2476,-0.425,-0.27,
2477,-0.42,-0.27,
2478,-0.405,-0.245,
2479,-0.405,-0.265,
2480,-0.415,-0.265,
2481,-0.415,-0.27,
2482,-0.425,-0.285,
2483,-0.43,-0.26,
2484,-0.405,-0.245,
2485,-0.405,-0.255,
2486,-0.405,-0.265,
2487,-0.405,-0.285,
2488,-0.43,-0.295,
2489,-0.415,-0.3,
2490,-0.41,-0.295,
2491,-0.415,-0.285,
2492,-0.43,-0.32,
2493,-0.445,-0.325,
2494,-0.465,-0.335,
2495,-0.46,-0.335,
2496,-0.45,-0.33,
2497,-0.455,-0.35,
2498,-0.46,-0.345,
2499,-0.465,-0.365,
2500,-0.485,-0.38,
2501,-0.495,-0.375,
2502,-0.475,-0.375,
2503,-0.49,-0.385,
2504,-0.5,-0.385,
2505,-0.495,-0.4,
2506,-0.515,-0.4,
2507,-0.5,-0.395,
2508,-0.485,-0.39,
2509,-0.49,-0.39,
2510,-0.485,-0.4,
2511,-0.5,-0.405,
2512,-0.5,-0.41,
2513,-0.49,-0.38,
2514,-0.48,-0.355,
2515,-0.46,-0.35,
2516,-0.46,-0.34,
2517,-0.47,-0.345,
2518,-0.465,-0.335,
2519,-0.44,-0.31,
2520,-0.43,-0.285,
2521,-0.425,-0.28,
2522,-0.41,-0.27,
2523,-0.41,-0.255,
2524,-0.4,-0.245,
2525,-0.39,-0.235,
2526,-0.38,-0.21,
2527,-0.355,-0.215,
2528,-0.35,-0.22,
2529,-0.355,-0.22,
2530,-0.35,-0.215,
2531,-0.34,-0.19,
2532,-0.33,-0.18,
2533,-0.325,-0.18,
2534,-0.305,-0.185,
2535,-0.32,-0.195,
2536,-0.315,-0.195,
2537,-0.305,-0.19,
2538,-0.3,-0.17,
2539,-0.305,-0.17,
2540,-0.305,-0.185,
2541,-0.31,-0.185,
2542,-0.33,-0.185,
2543,-0.31,-0.18,
2544,-0.315,-0.17,
2545,-0.315,-0.19,
2546,-0.32,-0.18,
2547,-0.325,-0.195,
2548,-0.325,-0.19,
2549,-0.325,-0.17,
2550,-0.31,-0.17,
2551,-0.31,-0.175,
2552,-0.315,-0.19,
2553,-0.325,-0.195,
2554,-0.33,-0.19,
2555,-0.325,-0.185,
2556,-0.325,-0.185,
2557,-0.315,-0.18,
2558,-0.32,-0.185,
2559,-0.33,-0.19,
2560,-0.335,-0.205,
2561,-0.33,-0.195,
2562,-0.315,-0.185,
2563,-0.32,-0.185,
2564,-0.32,-0.185,
2565,-0.335,-0.205,
2566,-0.335,-0.205,
2567,-0.325,-0.18,
2568,-0.325,-0.195,
2569,-0.32,-0.195,
2570,-0.32,-0.205,
2571,-0.325,-0.21,
2572,-0.35,-0.225,
2573,-0.345,-0.21,
2574,-0.345,-0.2,
2575,-0.335,-0.2,
2576,-0.345,-0.205,
2577,-0.355,-0.21,
2578,-0.355,-0.225,
2579,-0.355,-0.21,
2580,-0.345,-0.2,
2581,-0.335,-0.2,
2582,-0.335,-0.205,
2583,-0.345,-0.21,
2584,-0.355,-0.2,
2585,-0.34,-0.195,
2586,-0.335,-0.185,
2587,-0.33,-0.205,
2588,-0.335,-0.21,
2589,-0.345,-0.22,
2590,-0.35,-0.215,
2591,-0.35,-0.205,
2592,-0.34,-0.2,
2593,-0.335,-0.215,
2594,-0.33,-0.21,
2595,-0.36,-0.225,
2596,-0.355,-0.22,
2597,-0.345,-0.215,
2598,-0.335,-0.2,
2599,-0.345,-0.21,
2600,-0.35,-0.205,
2601,-0.36,-0.215,
2602,-0.38,-0.215,
2603,-0.37,-0.215,
2604,-0.345,-0.2,
2605,-0.345,-0.2,
2606,-0.35,-0.21,
2607,-0.355,-0.22,
2608,-0.365,-0.21,
2609,-0.36,-0.195,
2610,-0.345,-0.2,
2611,-0.345,-0.19,
2612,-0.35,-0.21,
2613,-0.36,-0.22,
2614,-0.36,-0.215,
2615,-0.35,-0.2,
2616,-0.355,-0.185,
2617,-0.34,-0.195,
2618,-0.345,-0.2,
2619,-0.355,-0.2,
2620,-0.355,-0.205,
2621,-0.355,-0.195,
2622,-0.34,-0.185,
2623,-0.34,-0.19,
2624,-0.345,-0.195,
2625,-0.365,-0.2,
2626,-0.37,-0.2,
2627,-0.35,-0.2,
2628,-0.33,-0.19,
2629,-0.32,-0.2,
2630,-0.315,-0.19,
2631,-0.295,-0.2,
2632,-0.305,-0.195,
2633,-0.295,-0.18,
2634,-0.3,-0.16,
2635,-0.285,-0.18,
2636,-0.275,-0.18,
2637,-0.26,-0.185,
2638,-0.275,-0.18,
2639,-0.265,-0.16,
2640,-0.26,-0.145,
2641,-0.25,-0.155,
2642,-0.245,-0.17,
2643,-0.255,-0.17,
2644,-0.265,-0.155,
2645,-0.26,-0.145,
2646,-0.26,-0.13,
2647,-0.25,-0.135,
2648,-0.26,-0.14,
2649,-0.28,-0.135,
2650,-0.28,-0.14,
2651,-0.275,-0.14,
2652,-0.285,-0.125,
2653,-0.28,-0.13,
2654,-0.255,-0.15,
2655,-0.245,-0.165,
2656,-0.245,-0.165,
2657,-0.26,-0.165,
2658,-0.285,-0.155,
2659,-0.29,-0.15,
2660,-0.3,-0.165,
2661,-0.32,-0.18,
2662,-0.335,-0.195,
2663,-0.355,-0.175,
2664,-0.35,-0.17,
2665,-0.355,-0.175,
2666,-0.355,-0.185,
2667,-0.375,-0.195,
2668,-0.385,-0.19,
2669,-0.38,-0.175,
2670,-0.36,-0.185,
2671,-0.35,-0.19,
2672,-0.36,-0.205,
2673,-0.365,-0.215,
2674,-0.37,-0.215,
2675,-0.37,-0.195,
2676,-0.365,-0.18,
2677,-0.36,-0.19,
2678,-0.365,-0.2,
2679,-0.37,-0.2,
2680,-0.385,-0.215,
2681,-0.385,-0.2,
2682,-0.365,-0.18,
2683,-0.36,-0.195,
2684,-0.38,-0.2,
2685,-0.385,-0.205,
2686,-0.395,-0.21,
2687,-0.395,-0.2,
2688,-0.385,-0.205,
2689,-0.38,-0.235,
2690,-0.395,-0.26,
2691,-0.425,-0.285,
2692,-0.465,-0.3,
2693,-0.5,-0.325,
2694,-0.515,-0.32,
2695,-0.53,-0.29,
2696,-0.56,-0.19,
2697,-0.585,-0.055,
2698,-0.53,0.05,
2699,-0.41,0.15,
2700,-0.255,0.245,
2701,-0.105,0.345,
2702,0.105,0.445,
2703,0.355,0.53,
2704,0.6,0.595,
2705,0.81,0.52,
2706,0.89,0.275,N
2707,0.83,-0.085,
2708,0.58,-0.3,
2709,0.185,-0.335,
2710,-0.205,-0.285,
2711,-0.45,-0.25,
2712,-0.525,-0.245,
2713,-0.495,-0.235,
2714,-0.465,-0.215,
2715,-0.435,-0.23,
2716,-0.415,-0.23,
2717,-0.415,-0.24,
2718,-0.415,-0.235,
2719,-0.4,-0.235,
2720,-0.395,-0.245,
2721,-0.405,-0.255,
2722,-0.425,-0.25,
2723,-0.435,-0.24,
2724,-0.415,-0.225,
2725,-0.415,-0.23,
2726,-0.415,-0.25,
2727,-0.415,-0.24,
2728,-0.43,-0.255,
2729,-0.42,-0.23,
2730,-0.41,-0.225,
2731,-0.405,-0.225,
2732,-0.42,-0.225,
2733,-0.41,-0.23,
2734,-0.42,-0.24,
2735,-0.4,-0.225,
2736,-0.395,-0.215,
2737,-0.385,-0.215,
2738,-0.4,-0.225,
2739,-0.4,-0.235,
2740,-0.4,-0.24,
2741,-0.4,-0.225,
2742,-0.395,-0.205,
2743,-0.4,-0.21,
2744,-0.4,-0.225,
2745,-0.4,-0.23,
2746,-0.41,-0.235,
2747,-0.395,-0.225,
2748,-0.41,-0.215,
2749,-0.4,-0.22,
2750,-0.395,-0.23,
2751,-0.405,-0.235,
2752,-0.41,-0.23,
2753,-0.415,-0.215,
2754,-0.405,-0.215,
2755,-0.4,-0.215,
2756,-0.395,-0.225,
2757,-0.405,-0.235,
2758,-0.415,-0.235,
2759,-0.405,-0.23,
2760,-0.415,-0.215,
2761,-0.41,-0.225,
2762,-0.405,-0.225,
2763,-0.405,-0.235,
2764,-0.41,-0.245,
2765,-0.405,-0.24,
2766,-0.4,-0.225,
2767,-0.395,-0.21,
2768,-0.405,-0.23,
2769,-0.405,-0.23,
2770,-0.4,-0.245,
2771,-0.395,-0.22,
2772,-0.39,-0.225,
2773,-0.395,-0.235,
2774,-0.39,-0.245,
2775,-0.395,-0.25,
2776,-0.42,-0.25,
2777,-0.415,-0.24,
2778,-0.405,-0.24,
2779,-0.4,-0.245,
2780,-0.4,-0.25,
2781,-0.415,-0.27,
2782,-0.42,-0.27,
2783,-0.41,-0.265,
2784,-0.395,-0.26,
2785,-0.4,-0.28,
2786,-0.405,-0.295,
2787,-0.415,-0.295,
2788,-0.435,-0.315,
2789,-0.415,-0.31,
2790,-0.415,-0.305,
2791,-0.4,-0.31,
2792,-0.405,-0.325,
2793,-0.42,-0.33,
2794,-0.43,-0.35,
2795,-0.425,-0.34,
2796,-0.41,-0.335,
2797,-0.41,-0.35,
2798,-0.405,-0.35,
2799,-0.415,-0.37,
2800,-0.425,-0.365,
2801,-0.425,-0.355,
2802,-0.42,-0.335,
2803,-0.41,-0.355,
2804,-0.41,-0.365,
2805,-0.42,-0.37,
2806,-0.43,-0.36,
2807,-0.425,-0.335,
2808,-0.42,-0.315,
2809,-0.405,-0.315,
2810,-0.415,-0.305,
2811,-0.41,-0.285,
2812,-0.41,-0.285,
2813,-0.385,-0.27,
2814,-0.37,-0.24,
2815,-0.36,-0.23,
2816,-0.35,-0.22,
2817,-0.35,-0.22,
2818,-0.35,-0.2,
2819,-0.335,-0.18,
2820,-0.32,-0.175,
2821,-0.305,-0.18,
2822,-0.315,-0.185,
2823,-0.315,-0.19,
2824,-0.32,-0.185,
2825,-0.305,-0.18,
2826,-0.305,-0.175,
2827,-0.295,-0.17,
2828,-0.29,-0.165,
2829,-0.295,-0.175,
2830,-0.295,-0.17,
2831,-0.285,-0.165,
2832,-0.285,-0.155,
2833,-0.27,-0.16,
2834,-0.28,-0.16,
2835,-0.28,-0.165,
2836,-0.295,-0.165,
2837,-0.28,-0.16,
2838,-0.285,-0.145,
2839,-0.275,-0.15,
2840,-0.285,-0.16,
2841,-0.295,-0.165,
2842,-0.305,-0.175,
2843,-0.295,-0.15,
2844,-0.285,-0.14,
2845,-0.285,-0.155,
2846,-0.29,-0.16,
2847,-0.3,-0.175,
2848,-0.31,-0.175,
2849,-0.295,-0.17,
2850,-0.3,-0.16,
2851,-0.29,-0.155,
2852,-0.285,-0.165,
2853,-0.305,-0.175,
2854,-0.31,-0.18,
2855,-0.3,-0.17,
2856,-0.295,-0.165,
2857,-0.305,-0.17,
2858,-0.3,-0.185,
2859,-0.305,-0.185,
2860,-0.32,-0.18,
2861,-0.32,-0.175,
2862,-0.31,-0.17,
2863,-0.3,-0.18,
2864,-0.31,-0.185,
2865,-0.32,-0.2,
2866,-0.34,-0.195,
2867,-0.33,-0.185,
2868,-0.31,-0.175,
2869,-0.315,-0.18,
2870,-0.325,-0.185,
2871,-0.325,-0.205,
2872,-0.345,-0.21,
2873,-0.33,-0.19,
2874,-0.32,-0.185,
2875,-0.32,-0.19,
2876,-0.335,-0.2,
2877,-0.335,-0.205,
2878,-0.355,-0.215,
2879,-0.34,-0.2,
2880,-0.32,-0.18,
2881,-0.315,-0.185,
2882,-0.33,-0.2,
2883,-0.34,-0.205,
2884,-0.34,-0.2,
2885,-0.35,-0.205,
2886,-0.33,-0.19,
2887,-0.33,-0.19,
2888,-0.34,-0.18,
2889,-0.35,-0.205,
2890,-0.355,-0.2,
2891,-0.345,-0.195,
2892,-0.335,-0.18,
2893,-0.335,-0.185,
2894,-0.34,-0.185,
2895,-0.34,-0.2,
2896,-0.345,-0.2,
2897,-0.335,-0.18,
2898,-0.335,-0.18,
2899,-0.325,-0.185,
2900,-0.325,-0.185,
2901,-0.335,-0.2,
2902,-0.34,-0.195,
2903,-0.34,-0.175,
2904,-0.32,-0.175,
2905,-0.315,-0.185,
2906,-0.32,-0.19,
2907,-0.335,-0.195,
2908,-0.335,-0.205,
2909,-0.32,-0.185,
2910,-0.325,-0.16,
2911,-0.315,-0.17,
2912,-0.32,-0.19,
2913,-0.32,-0.19,
2914,-0.345,-0.19,
2915,-0.335,-0.18,
2916,-0.32,-0.17,
2917,-0.31,-0.16,
2918,-0.32,-0.17,
2919,-0.32,-0.185,
2920,-0.34,-0.195,
2921,-0.33,-0.18,
2922,-0.32,-0.175,
2923,-0.31,-0.17,
2924,-0.31,-0.17,
2925,-0.31,-0.195,
2926,-0.295,-0.2,
2927,-0.28,-0.18,
2928,-0.255,-0.17,
2929,-0.25,-0.175,
2930,-0.25,-0.18,
2931,-0.255,-0.18,
2932,-0.26,-0.17,
2933,-0.24,-0.155,
2934,-0.22,-0.135,
2935,-0.23,-0.145,
2936,-0.23,-0.16,
2937,-0.215,-0.16,
2938,-0.22,-0.16,
2939,-0.225,-0.14,
2940,-0.23,-0.12,
2941,-0.23,-0.12,
2942,-0.235,-0.13,
2943,-0.245,-0.13,
2944,-0.255,-0.125,
2945,-0.24,-0.125,
2946,-0.235,-0.115,
2947,-0.245,-0.11,
2948,-0.235,-0.13,
2949,-0.23,-0.145,
2950,-0.22,-0.155,
2951,-0.195,-0.14,
2952,-0.22,-0.14,
2953,-0.245,-0.145,
2954,-0.26,-0.15,
2955,-0.27,-0.16,
2956,-0.29,-0.165,
2957,-0.3,-0.16,
2958,-0.305,-0.15,
2959,-0.305,-0.165,
2960,-0.32,-0.185,
2961,-0.33,-0.18,
2962,-0.35,-0.185,
2963,-0.35,-0.17,
2964,-0.335,-0.155,
2965,-0.335,-0.175,
2966,-0.335,-0.19,
2967,-0.34,-0.195,
2968,-0.35,-0.195,
2969,-0.35,-0.18,
2970,-0.345,-0.175,
2971,-0.335,-0.18,
2972,-0.345,-0.18,
2973,-0.355,-0.19,
2974,-0.37,-0.17,
2975,-0.35,-0.18,
2976,-0.345,-0.175,
2977,-0.335,-0.18,
2978,-0.335,-0.185,
2979,-0.335,-0.2,
2980,-0.355,-0.195,
2981,-0.355,-0.2,
2982,-0.345,-0.225,
2983,-0.355,-0.255,
2984,-0.395,-0.295,
2985,-0.45,-0.33,
2986,-0.48,-0.34,
2987,-0.505,-0.305,
2988,-0.525,-0.195,
2989,-0.545,-0.065,
2990,-0.5,0.07,
2991,-0.395,0.18,
2992,-0.255,0.285,
2993,-0.07,0.415,
2994,0.145,0.555,
2995,0.425,0.67,
2996,0.685,0.7,
2997,0.875,0.555,
2998,0.925,0.21,N
2999,0.795,-0.125,
3000,0.47,-0.265,
3001,0.02,-0.24,
3002,-0.325,-0.215,
3003,-0.47,-0.215,
3004,-0.485,-0.23,
3005,-0.41,-0.22,
3006,-0.365,-0.21,
3007,-0.355,-0.235,
3008,-0.365,-0.235,
3009,-0.38,-0.235,
3010,-0.385,-0.23,
3011,-0.38,-0.225,
3012,-0.37,-0.21,
3013,-0.37,-0.215,
3014,-0.375,-0.225,
3015,-0.385,-0.24,
3016,-0.395,-0.25,
3017,-0.385,-0.23,
3018,-0.38,-0.23,
3019,-0.385,-0.225,
3020,-0.375,-0.23,
3021,-0.39,-0.24,
3022,-0.405,-0.235,
3023,-0.405,-0.23,
3024,-0.39,-0.225,
3025,-0.385,-0.23,
3026,-0.385,-0.245,
3027,-0.39,-0.235,
3028,-0.41,-0.235,
3029,-0.4,-0.22,
3030,-0.39,-0.22,
3031,-0.385,-0.225,
3032,-0.385,-0.23,
3033,-0.395,-0.245,
3034,-0.39,-0.225,
3035,-0.395,-0.22,
3036,-0.38,-0.21,
3037,-0.375,-0.21,
3038,-0.38,-0.22,
3039,-0.385,-0.24,
3040,-0.4,-0.235,
3041,-0.385,-0.225,
3042,-0.38,-0.21,
3043,-0.375,-0.2,
3044,-0.38,-0.225,
3045,-0.395,-0.225,
3046,-0.395,-0.225,
3047,-0.385,-0.225,
3048,-0.375,-0.215,
3049,-0.37,-0.215,
3050,-0.365,-0.235,
3051,-0.385,-0.24,
3052,-0.395,-0.24,
3053,-0.385,-0.235,
3054,-0.385,-0.22,
3055,-0.37,-0.225,
3056,-0.375,-0.235,
3057,-0.37,-0.245,
3058,-0.375,-0.245,
3059,-0.375,-0.23,
3060,-0.37,-0.225,
3061,-0.355,-0.22,
3062,-0.365,-0.245,
3063,-0.38,-0.25,
3064,-0.375,-0.255,
3065,-0.37,-0.255,
3066,-0.38,-0.24,
3067,-0.365,-0.25,
3068,-0.37,-0.26,
3069,-0.375,-0.275,
3070,-0.39,-0.285,
3071,-0.38,-0.275,
3072,-0.375,-0.28,
3073,-0.38,-0.29,
3074,-0.37,-0.3,
3075,-0.375,-0.305,
3076,-0.38,-0.315,
3077,-0.385,-0.31,
3078,-0.385,-0.315,
3079,-0.37,-0.325,
3080,-0.375,-0.335,
3081,-0.375,-0.35,
3082,-0.38,-0.345,
3083,-0.38,-0.34,
3084,-0.38,-0.335,
3085,-0.38,-0.35,
3086,-0.375,-0.36,
3087,-0.39,-0.37,
3088,-0.395,-0.365,
3089,-0.385,-0.36,
3090,-0.385,-0.345,
3091,-0.375,-0.34,
3092,-0.375,-0.35,
3093,-0.385,-0.355,
3094,-0.385,-0.345,
3095,-0.39,-0.325,
3096,-0.37,-0.305,
3097,-0.365,-0.3,
3098,-0.365,-0.285,
3099,-0.375,-0.285,
3100,-0.385,-0.28,
3101,-0.35,-0.265,
3102,-0.345,-0.23,
3103,-0.325,-0.235,
3104,-0.325,-0.24,
3105,-0.33,-0.245,
3106,-0.325,-0.225,
3107,-0.325,-0.215,
3108,-0.315,-0.195,
3109,-0.315,-0.18,
3110,-0.315,-0.18,
3111,-0.3,-0.19,
3112,-0.3,-0.18,
3113,-0.285,-0.165,
3114,-0.27,-0.14,
3115,-0.265,-0.155,
3116,-0.26,-0.165,
3117,-0.275,-0.16,
3118,-0.285,-0.155,
3119,-0.265,-0.145,
3120,-0.255,-0.135,
3121,-0.25,-0.15,
3122,-0.27,-0.165,
3123,-0.28,-0.17,
3124,-0.285,-0.15,
3125,-0.285,-0.145,
3126,-0.28,-0.145,
3127,-0.27,-0.145,
3128,-0.27,-0.16,
3129,-0.27,-0.17,
3130,-0.285,-0.17,
3131,-0.28,-0.155,
3132,-0.275,-0.135,
3133,-0.27,-0.145,
3134,-0.265,-0.155,
3135,-0.275,-0.165,
3136,-0.29,-0.18,
3137,-0.285,-0.165,
3138,-0.285,-0.15,
3139,-0.275,-0.16,
3140,-0.27,-0.15,
3141,-0.28,-0.17,
3142,-0.295,-0.175,
3143,-0.28,-0.165,
3144,-0.27,-0.155,
3145,-0.27,-0.165,
3146,-0.275,-0.175,
3147,-0.285,-0.18,
3148,-0.3,-0.175,
3149,-0.295,-0.165,
3150,-0.29,-0.16,
3151,-0.295,-0.165,
3152,-0.3,-0.185,
3153,-0.29,-0.195,
3154,-0.305,-0.185,
3155,-0.295,-0.185,
3156,-0.29,-0.17,
3157,-0.295,-0.175,
3158,-0.29,-0.17,
3159,-0.31,-0.185,
3160,-0.32,-0.18,
3161,-0.315,-0.185,
3162,-0.315,-0.18,
3163,-0.3,-0.175,
3164,-0.305,-0.185,
3165,-0.315,-0.19,
3166,-0.33,-0.185,
3167,-0.32,-0.17,
3168,-0.305,-0.16,
3169,-0.315,-0.185,
3170,-0.305,-0.185,
3171,-0.315,-0.19,
3172,-0.325,-0.2,
3173,-0.31,-0.195,
3174,-0.295,-0.165,
3175,-0.3,-0.175,
3176,-0.305,-0.18,
3177,-0.31,-0.19,
3178,-0.325,-0.195,
3179,-0.315,-0.19,
3180,-0.315,-0.16,
3181,-0.305,-0.175,
3182,-0.305,-0.165,
3183,-0.325,-0.185,
3184,-0.32,-0.18,
3185,-0.32,-0.18,
3186,-0.31,-0.155,
3187,-0.305,-0.17,
3188,-0.32,-0.18,
3189,-0.32,-0.18,
3190,-0.32,-0.185,
3191,-0.31,-0.165,
3192,-0.305,-0.15,
3193,-0.29,-0.16,
3194,-0.285,-0.165,
3195,-0.29,-0.18,
3196,-0.305,-0.18,
3197,-0.31,-0.165,
3198,-0.3,-0.15,
3199,-0.3,-0.155,
3200,-0.31,-0.155,
3201,-0.315,-0.17,
3202,-0.315,-0.175,
3203,-0.31,-0.165,
3204,-0.295,-0.155,
3205,-0.3,-0.15,
3206,-0.295,-0.155,
3207,-0.315,-0.165,
3208,-0.31,-0.165,
3209,-0.29,-0.16,
3210,-0.265,-0.16,
3211,-0.24,-0.165,
3212,-0.255,-0.17,
3213,-0.24,-0.175,
3214,-0.25,-0.16,
3215,-0.225,-0.135,
3216,-0.225,-0.14,
3217,-0.215,-0.145,
3218,-0.21,-0.14,
3219,-0.2,-0.145,
3220,-0.195,-0.135,
3221,-0.195,-0.125,
3222,-0.18,-0.115,
3223,-0.175,-0.115,
3224,-0.18,-0.125,
3225,-0.205,-0.13,
3226,-0.215,-0.105,
3227,-0.21,-0.095,
3228,-0.21,-0.095,
3229,-0.21,-0.095,
3230,-0.21,-0.095,
3231,-0.215,-0.095,
3232,-0.225,-0.115,
3233,-0.21,-0.12,
3234,-0.18,-0.12,
3235,-0.17,-0.13,
3236,-0.185,-0.135,
3237,-0.24,-0.125,
3238,-0.255,-0.14,
3239,-0.255,-0.135,
3240,-0.27,-0.12,
3241,-0.275,-0.15,
3242,-0.285,-0.15,
3243,-0.3,-0.155,
3244,-0.3,-0.16,
3245,-0.315,-0.145,
3246,-0.305,-0.14,
3247,-0.3,-0.145,
3248,-0.295,-0.145,
3249,-0.3,-0.16,
3250,-0.315,-0.165,
3251,-0.31,-0.155,
3252,-0.31,-0.145,
3253,-0.3,-0.155,
3254,-0.3,-0.155,
3255,-0.305,-0.17,
3256,-0.315,-0.165,
3257,-0.325,-0.16,
3258,-0.32,-0.155,
3259,-0.32,-0.16,
3260,-0.32,-0.17,
3261,-0.325,-0.17,
3262,-0.34,-0.165,
3263,-0.335,-0.165,
3264,-0.325,-0.145,
3265,-0.315,-0.17,
3266,-0.32,-0.19,
3267,-0.345,-0.225,
3268,-0.37,-0.25,
3269,-0.395,-0.27,
3270,-0.425,-0.28,
3271,-0.445,-0.305,
3272,-0.465,-0.29,
3273,-0.51,-0.2,
3274,-0.53,-0.075,
3275,-0.485,0.04,
3276,-0.37,0.135,
3277,-0.235,0.215,
3278,-0.09,0.32,
3279,0.105,0.435,
3280,0.375,0.54,
3281,0.655,0.58,
3282,0.82,0.465,N
3283,0.865,0.145,
3284,0.735,-0.155,
3285,0.45,-0.285,
3286,0.06,-0.25,
3287,-0.27,-0.2,
3288,-0.43,-0.18,
3289,-0.46,-0.19,
3290,-0.415,-0.19,
3291,-0.385,-0.185,
3292,-0.365,-0.195,
3293,-0.355,-0.185,
3294,-0.355,-0.175,
3295,-0.345,-0.19,
3296,-0.35,-0.195,
3297,-0.35,-0.205,
3298,-0.36,-0.205,
3299,-0.345,-0.185,
3300,-0.34,-0.165,
3301,-0.34,-0.185,
3302,-0.335,-0.19,
3303,-0.335,-0.21,
3304,-0.355,-0.21,
3305,-0.345,-0.2,
3306,-0.34,-0.19,
3307,-0.335,-0.185,
3308,-0.34,-0.195,
3309,-0.35,-0.21,
3310,-0.365,-0.21,
3311,-0.36,-0.19,
3312,-0.365,-0.18,
3313,-0.35,-0.19,
3314,-0.345,-0.195,
3315,-0.365,-0.215,
3316,-0.36,-0.215,
3317,-0.35,-0.195,
3318,-0.355,-0.185,
3319,-0.35,-0.18,
3320,-0.355,-0.185,
3321,-0.35,-0.2,
3322,-0.36,-0.205,
3323,-0.335,-0.19,
3324,-0.335,-0.18,
3325,-0.33,-0.185,
3326,-0.34,-0.195,
3327,-0.35,-0.195,
3328,-0.35,-0.195,
3329,-0.345,-0.19,
3330,-0.335,-0.185,
3331,-0.345,-0.195,
3332,-0.355,-0.195,
3333,-0.355,-0.205,
3334,-0.37,-0.2,
3335,-0.355,-0.19,
3336,-0.35,-0.185,
3337,-0.345,-0.195,
3338,-0.365,-0.21,
3339,-0.365,-0.215,
3340,-0.37,-0.215,
3341,-0.365,-0.205,
3342,-0.355,-0.19,
3343,-0.345,-0.19,
3344,-0.345,-0.205,
3345,-0.345,-0.22,
3346,-0.34,-0.215,
3347,-0.335,-0.205,
3348,-0.325,-0.21,
3349,-0.335,-0.22,
3350,-0.345,-0.23,
3351,-0.35,-0.24,
3352,-0.35,-0.255,
3353,-0.355,-0.24,
3354,-0.355,-0.225,
3355,-0.36,-0.23,
3356,-0.35,-0.25,
3357,-0.36,-0.25,
3358,-0.365,-0.26,
3359,-0.345,-0.26,
3360,-0.345,-0.255,
3361,-0.33,-0.26,
3362,-0.35,-0.285,
3363,-0.345,-0.295,
3364,-0.355,-0.3,
3365,-0.35,-0.285,
3366,-0.34,-0.28,
3367,-0.335,-0.29,
3368,-0.35,-0.305,
3369,-0.365,-0.315,
3370,-0.38,-0.32,
3371,-0.385,-0.31,
3372,-0.355,-0.305,
3373,-0.36,-0.31,
3374,-0.355,-0.32,
3375,-0.37,-0.325,
3376,-0.385,-0.335,
3377,-0.37,-0.32,
3378,-0.37,-0.3,
3379,-0.35,-0.3,
3380,-0.345,-0.3,
3381,-0.365,-0.285,
3382,-0.365,-0.28,
3383,-0.36,-0.26,
3384,-0.345,-0.24,
3385,-0.33,-0.235,
3386,-0.33,-0.225,
3387,-0.33,-0.23,
3388,-0.335,-0.225,
3389,-0.315,-0.19,
3390,-0.31,-0.18,
3391,-0.285,-0.185,
3392,-0.29,-0.18,
3393,-0.29,-0.195,
3394,-0.3,-0.18,
3395,-0.28,-0.17,
3396,-0.275,-0.16,
3397,-0.26,-0.17,
3398,-0.26,-0.17,
3399,-0.27,-0.18,
3400,-0.265,-0.18,
3401,-0.255,-0.17,
3402,-0.25,-0.155,
3403,-0.245,-0.155,
3404,-0.245,-0.16,
3405,-0.255,-0.18,
3406,-0.265,-0.175,
3407,-0.26,-0.165,
3408,-0.255,-0.16,
3409,-0.24,-0.17,
3410,-0.25,-0.175,
3411,-0.255,-0.19,
3412,-0.275,-0.19,
3413,-0.275,-0.175,
3414,-0.265,-0.165,
3415,-0.27,-0.175,
3416,-0.275,-0.18,
3417,-0.28,-0.185,
3418,-0.29,-0.185,
3419,-0.28,-0.185,
3420,-0.275,-0.165,
3421,-0.27,-0.185,
3422,-0.27,-0.185,
3423,-0.28,-0.205,
3424,-0.29,-0.21,
3425,-0.28,-0.195,
3426,-0.285,-0.17,
3427,-0.275,-0.18,
3428,-0.29,-0.185,
3429,-0.28,-0.19,
3430,-0.29,-0.2,
3431,-0.28,-0.2,
3432,-0.285,-0.195,
3433,-0.275,-0.2,
3434,-0.28,-0.205,
3435,-0.295,-0.21,
3436,-0.305,-0.215,
3437,-0.3,-0.205,
3438,-0.3,-0.205,
3439,-0.305,-0.22,
3440,-0.315,-0.215,
3441,-0.32,-0.225,
3442,-0.31,-0.215,
3443,-0.31,-0.21,
3444,-0.3,-0.19,
3445,-0.31,-0.205,
3446,-0.31,-0.215,
3447,-0.32,-0.22,
3448,-0.325,-0.225,
3449,-0.31,-0.21,
3450,-0.32,-0.2,
3451,-0.31,-0.205,
3452,-0.31,-0.215,
3453,-0.315,-0.22,
3454,-0.325,-0.225,
3455,-0.315,-0.215,
3456,-0.305,-0.205,
3457,-0.315,-0.195,
3458,-0.31,-0.215,
3459,-0.32,-0.23,
3460,-0.325,-0.235,
3461,-0.325,-0.22,
3462,-0.32,-0.205,
3463,-0.305,-0.22,
3464,-0.305,-0.23,
3465,-0.3,-0.24,
3466,-0.315,-0.235,
3467,-0.3,-0.215,
3468,-0.31,-0.21,
3469,-0.315,-0.205,
3470,-0.305,-0.205,
3471,-0.31,-0.21,
3472,-0.32,-0.215,
3473,-0.31,-0.22,
3474,-0.3,-0.205,
3475,-0.295,-0.22,
3476,-0.3,-0.23,
3477,-0.315,-0.225,
3478,-0.325,-0.225,
3479,-0.325,-0.195,
3480,-0.305,-0.195,
3481,-0.31,-0.22,
3482,-0.29,-0.23,
3483,-0.315,-0.25,
3484,-0.325,-0.24,
3485,-0.32,-0.225,
3486,-0.29,-0.21,
3487,-0.28,-0.21,
3488,-0.26,-0.23,
3489,-0.26,-0.235,
3490,-0.265,-0.24,
3491,-0.26,-0.21,
3492,-0.25,-0.195,
3493,-0.23,-0.195,
3494,-0.22,-0.19,
3495,-0.22,-0.2,
3496,-0.235,-0.195,
3497,-0.22,-0.18,
3498,-0.205,-0.18,
3499,-0.205,-0.19,
3500,-0.21,-0.19,
3501,-0.21,-0.18,
3502,-0.23,-0.185,
3503,-0.24,-0.165,
3504,-0.23,-0.165,
3505,-0.225,-0.175,
3506,-0.235,-0.185,
3507,-0.25,-0.2,
3508,-0.265,-0.195,
3509,-0.26,-0.185,
3510,-0.245,-0.18,
3511,-0.215,-0.195,
3512,-0.215,-0.195,
3513,-0.245,-0.215,
3514,-0.28,-0.2,
3515,-0.275,-0.21,
3516,-0.275,-0.195,
3517,-0.295,-0.225,
3518,-0.31,-0.235,
3519,-0.325,-0.245,
3520,-0.34,-0.245,
3521,-0.34,-0.22,
3522,-0.325,-0.23,
3523,-0.315,-0.22,
3524,-0.31,-0.225,
3525,-0.315,-0.24,
3526,-0.33,-0.225,
3527,-0.33,-0.21,
3528,-0.325,-0.22,
3529,-0.325,-0.23,
3530,-0.335,-0.23,
3531,-0.345,-0.24,
3532,-0.35,-0.245,
3533,-0.35,-0.245,
3534,-0.35,-0.24,
3535,-0.345,-0.235,
3536,-0.35,-0.24,
3537,-0.365,-0.255,
3538,-0.36,-0.255,
3539,-0.35,-0.25,
3540,-0.355,-0.23,
3541,-0.345,-0.24,
3542,-0.345,-0.25,
3543,-0.35,-0.265,
3544,-0.365,-0.29,
3545,-0.38,-0.31,
3546,-0.405,-0.305,
3547,-0.425,-0.335,
3548,-0.44,-0.355,
3549,-0.47,-0.335,
3550,-0.52,-0.27,
3551,-0.54,-0.16,
3552,-0.49,-0.05,
3553,-0.39,0.01,
3554,-0.26,0.065,
3555,-0.115,0.135,
3556,0.085,0.24,
3557,0.36,0.355,
3558,0.615,0.395,
3559,0.78,0.255,
3560,0.835,-0.015,N
3561,0.72,-0.295,
3562,0.41,-0.405,
3563,0.03,-0.39,
3564,-0.255,-0.34,
3565,-0.415,-0.305,
3566,-0.47,-0.31,
3567,-0.465,-0.295,
3568,-0.435,-0.295,
3569,-0.395,-0.28,
3570,-0.375,-0.27,
3571,-0.37,-0.265,
3572,-0.375,-0.285,
3573,-0.375,-0.29,
3574,-0.39,-0.29,
3575,-0.4,-0.29,
3576,-0.38,-0.285,
3577,-0.385,-0.29,
3578,-0.385,-0.29,
3579,-0.385,-0.285,
3580,-0.385,-0.285,
3581,-0.37,-0.285,
3582,-0.37,-0.265,
3583,-0.36,-0.265,
3584,-0.38,-0.275,
3585,-0.38,-0.285,
3586,-0.385,-0.28,
3587,-0.37,-0.27,
3588,-0.37,-0.27,
3589,-0.365,-0.275,
3590,-0.375,-0.27,
3591,-0.385,-0.285,
3592,-0.39,-0.3,
3593,-0.39,-0.28,
3594,-0.385,-0.275,
3595,-0.385,-0.285,
3596,-0.395,-0.285,
3597,-0.39,-0.295,
3598,-0.4,-0.29,
3599,-0.405,-0.285,
3600,-0.39,-0.275,
3601,-0.395,-0.265,
3602,-0.39,-0.285,
3603,-0.405,-0.3,
3604,-0.405,-0.305,
3605,-0.4,-0.285,
3606,-0.375,-0.27,
3607,-0.38,-0.28,
3608,-0.39,-0.275,
3609,-0.395,-0.29,
3610,-0.395,-0.28,
3611,-0.39,-0.29,
3612,-0.39,-0.28,
3613,-0.385,-0.28,
3614,-0.405,-0.285,
3615,-0.4,-0.285,
3616,-0.405,-0.285,
3617,-0.395,-0.295,
3618,-0.39,-0.275,
3619,-0.395,-0.28,
3620,-0.39,-0.29,
3621,-0.4,-0.295,
3622,-0.405,-0.295,
3623,-0.405,-0.285,
3624,-0.39,-0.275,
3625,-0.39,-0.295,
3626,-0.395,-0.305,
3627,-0.4,-0.305,
3628,-0.4,-0.32,
3629,-0.395,-0.305,
3630,-0.38,-0.295,
3631,-0.37,-0.3,
3632,-0.38,-0.3,
3633,-0.385,-0.32,
3634,-0.395,-0.32,
3635,-0.39,-0.31,
3636,-0.38,-0.305,
3637,-0.38,-0.315,
3638,-0.385,-0.33,
3639,-0.39,-0.345,
3640,-0.39,-0.355,
3641,-0.4,-0.34,
3642,-0.4,-0.335,
3643,-0.405,-0.35,
3644,-0.415,-0.37,
3645,-0.42,-0.38,
3646,-0.43,-0.38,
3647,-0.43,-0.375,
3648,-0.425,-0.385,
3649,-0.42,-0.405,
3650,-0.43,-0.405,
3651,-0.445,-0.42,
3652,-0.465,-0.43,
3653,-0.455,-0.415,
3654,-0.44,-0.41,
3655,-0.425,-0.415,
3656,-0.435,-0.425,
3657,-0.45,-0.425,
3658,-0.44,-0.425,
3659,-0.445,-0.405,
3660,-0.425,-0.385,
3661,-0.425,-0.39,
3662,-0.425,-0.385,
3663,-0.43,-0.385,
3664,-0.43,-0.38,
3665,-0.415,-0.35,
3666,-0.415,-0.32,
3667,-0.385,-0.315,
3668,-0.375,-0.315,
3669,-0.385,-0.305,
3670,-0.37,-0.305,
3671,-0.36,-0.27,
3672,-0.35,-0.25,
3673,-0.335,-0.235,
3674,-0.335,-0.235,
3675,-0.325,-0.245,
3676,-0.32,-0.24,
3677,-0.325,-0.235,
3678,-0.305,-0.215,
3679,-0.295,-0.22,
3680,-0.3,-0.22,
3681,-0.29,-0.225,
3682,-0.295,-0.22,
3683,-0.29,-0.215,
3684,-0.29,-0.205,
3685,-0.285,-0.215,
3686,-0.285,-0.215,
3687,-0.285,-0.225,
3688,-0.29,-0.225,
3689,-0.29,-0.215,
3690,-0.285,-0.19,
3691,-0.27,-0.195,
3692,-0.27,-0.21,
3693,-0.28,-0.205,
3694,-0.29,-0.205,
3695,-0.285,-0.2,
3696,-0.275,-0.205,
3697,-0.275,-0.205,
3698,-0.275,-0.205,
3699,-0.29,-0.215,
3700,-0.305,-0.21,
3701,-0.305,-0.21,
3702,-0.3,-0.2,
3703,-0.28,-0.2,
3704,-0.29,-0.205,
3705,-0.305,-0.22,
3706,-0.315,-0.21,
3707,-0.31,-0.2,
3708,-0.295,-0.2,
3709,-0.29,-0.195,
3710,-0.3,-0.215,
3711,-0.305,-0.215,
3712,-0.305,-0.22,
3713,-0.31,-0.21,
3714,-0.3,-0.21,
3715,-0.295,-0.21,
3716,-0.305,-0.215,
3717,-0.305,-0.225,
3718,-0.315,-0.23,
3719,-0.31,-0.215,
3720,-0.31,-0.215,
3721,-0.295,-0.215,
3722,-0.3,-0.22,
3723,-0.305,-0.23,
3724,-0.31,-0.22,
3725,-0.305,-0.205,
3726,-0.305,-0.2,
3727,-0.295,-0.22,
3728,-0.3,-0.225,
3729,-0.315,-0.24,
3730,-0.325,-0.23,
3731,-0.32,-0.23,
3732,-0.32,-0.215,
3733,-0.315,-0.225,
3734,-0.31,-0.22,
3735,-0.325,-0.235,
3736,-0.335,-0.225,
3737,-0.33,-0.225,
3738,-0.32,-0.21,
3739,-0.32,-0.225,
3740,-0.31,-0.225,
3741,-0.33,-0.225,
3742,-0.33,-0.23,
3743,-0.325,-0.22,
3744,-0.31,-0.21,
3745,-0.305,-0.22,
3746,-0.305,-0.215,
3747,-0.32,-0.23,
3748,-0.33,-0.235,
3749,-0.325,-0.215,
3750,-0.3,-0.21,
3751,-0.31,-0.215,
3752,-0.305,-0.225,
3753,-0.315,-0.225,
3754,-0.33,-0.235,
3755,-0.33,-0.23,
3756,-0.33,-0.215,
3757,-0.32,-0.225,
3758,-0.325,-0.22,
3759,-0.325,-0.23,
3760,-0.335,-0.225,
3761,-0.325,-0.22,
3762,-0.315,-0.21,
3763,-0.31,-0.215,
3764,-0.315,-0.22,
3765,-0.32,-0.22,
3766,-0.325,-0.225,
3767,-0.315,-0.21,
3768,-0.31,-0.205,
3769,-0.305,-0.215,
3770,-0.31,-0.225,
3771,-0.315,-0.23,
3772,-0.32,-0.24,
3773,-0.315,-0.225,
3774,-0.31,-0.205,
3775,-0.295,-0.215,
3776,-0.295,-0.215,
3777,-0.305,-0.22,
3778,-0.31,-0.23,
3779,-0.3,-0.225,
3780,-0.28,-0.215,
3781,-0.275,-0.225,
3782,-0.265,-0.22,
3783,-0.275,-0.22,
3784,-0.275,-0.225,
3785,-0.26,-0.195,
3786,-0.24,-0.195,
3787,-0.24,-0.205,
3788,-0.235,-0.2,
3789,-0.24,-0.2,
3790,-0.235,-0.195,
3791,-0.225,-0.19,
3792,-0.215,-0.17,
3793,-0.205,-0.17,
3794,-0.205,-0.18,
3795,-0.21,-0.18,
3796,-0.215,-0.185,
3797,-0.22,-0.17,
3798,-0.22,-0.165,
3799,-0.215,-0.18,
3800,-0.22,-0.175,
3801,-0.22,-0.185,
3802,-0.23,-0.175,
3803,-0.23,-0.17,
3804,-0.24,-0.15,
3805,-0.21,-0.15,
3806,-0.22,-0.155,
3807,-0.23,-0.18,
3808,-0.255,-0.18,
3809,-0.235,-0.17,
3810,-0.21,-0.175,
3811,-0.19,-0.18,
3812,-0.205,-0.19,
3813,-0.225,-0.195,
3814,-0.26,-0.2,
3815,-0.275,-0.19,
3816,-0.28,-0.185,
3817,-0.285,-0.2,
3818,-0.305,-0.195,
3819,-0.32,-0.215,
3820,-0.315,-0.21,
3821,-0.335,-0.2,
3822,-0.325,-0.195,
3823,-0.335,-0.205,
3824,-0.32,-0.22,
3825,-0.325,-0.215,
3826,-0.32,-0.225,
3827,-0.325,-0.225,
3828,-0.325,-0.21,
3829,-0.31,-0.205,
3830,-0.305,-0.21,
3831,-0.32,-0.225,
3832,-0.32,-0.23,
3833,-0.33,-0.215,
3834,-0.32,-0.2,
3835,-0.32,-0.215,
3836,-0.33,-0.22,
3837,-0.33,-0.225,
3838,-0.36,-0.21,
3839,-0.355,-0.21,
3840,-0.33,-0.2,
3841,-0.325,-0.21,
3842,-0.325,-0.215,
3843,-0.335,-0.225,
3844,-0.35,-0.235,
3845,-0.34,-0.24,
3846,-0.345,-0.255,
3847,-0.355,-0.29,
3848,-0.385,-0.31,
3849,-0.425,-0.335,
3850,-0.45,-0.36,
3851,-0.47,-0.35,
3852,-0.485,-0.285,
3853,-0.51,-0.175,
3854,-0.515,-0.05,
3855,-0.455,0.075,
3856,-0.325,0.19,
3857,-0.165,0.315,
3858,0.01,0.43,
3859,0.25,0.545,
3860,0.515,0.655,
3861,0.74,0.655,
3862,0.885,0.505,N
3863,0.935,0.21,
3864,0.835,-0.09,
3865,0.525,-0.275,
3866,0.12,-0.29,
3867,-0.23,-0.265,
3868,-0.425,-0.25,
3869,-0.455,-0.255,
3870,-0.42,-0.23,
3871,-0.38,-0.23,
3872,-0.36,-0.25,
3873,-0.365,-0.255,
3874,-0.375,-0.255,
3875,-0.38,-0.25,
3876,-0.355,-0.235,
3877,-0.355,-0.25,
3878,-0.37,-0.25,
3879,-0.375,-0.265,
3880,-0.385,-0.255,
3881,-0.38,-0.25,
3882,-0.365,-0.24,
3883,-0.37,-0.245,
3884,-0.37,-0.255,
3885,-0.365,-0.255,
3886,-0.38,-0.265,
3887,-0.37,-0.24,
3888,-0.375,-0.24,
3889,-0.365,-0.255,
3890,-0.37,-0.255,
3891,-0.38,-0.265,
3892,-0.375,-0.26,
3893,-0.365,-0.25,
3894,-0.36,-0.255,
3895,-0.36,-0.255,
3896,-0.355,-0.255,
3897,-0.355,-0.255,
3898,-0.37,-0.25,
3899,-0.365,-0.245,
3900,-0.355,-0.225,
3901,-0.35,-0.23,
3902,-0.35,-0.245,
3903,-0.35,-0.255,
3904,-0.36,-0.26,
3905,-0.36,-0.245,
3906,-0.36,-0.245,
3907,-0.35,-0.245,
3908,-0.355,-0.24,
3909,-0.365,-0.25,
3910,-0.37,-0.245,
3911,-0.36,-0.245,
3912,-0.35,-0.24,
3913,-0.355,-0.24,
3914,-0.35,-0.25,
3915,-0.355,-0.265,
3916,-0.37,-0.255,
3917,-0.375,-0.24,
3918,-0.36,-0.24,
3919,-0.35,-0.24,
3920,-0.345,-0.255,
3921,-0.35,-0.26,
3922,-0.37,-0.26,
3923,-0.37,-0.255,
3924,-0.355,-0.255,
3925,-0.35,-0.25,
3926,-0.345,-0.26,
3927,-0.36,-0.275,
3928,-0.37,-0.28,
3929,-0.365,-0.28,
3930,-0.36,-0.27,
3931,-0.35,-0.265,
3932,-0.355,-0.285,
3933,-0.365,-0.29,
3934,-0.365,-0.28,
3935,-0.37,-0.28,
3936,-0.365,-0.275,
3937,-0.35,-0.295,
3938,-0.35,-0.305,
3939,-0.36,-0.31,
3940,-0.36,-0.31,
3941,-0.355,-0.32,
3942,-0.345,-0.305,
3943,-0.35,-0.32,
3944,-0.345,-0.345,
3945,-0.355,-0.35,
3946,-0.37,-0.355,
3947,-0.365,-0.355,
3948,-0.355,-0.35,
3949,-0.36,-0.35,
3950,-0.365,-0.36,
3951,-0.365,-0.38,
3952,-0.38,-0.385,
3953,-0.385,-0.38,
3954,-0.375,-0.38,
3955,-0.37,-0.375,
3956,-0.375,-0.385,
3957,-0.385,-0.395,
3958,-0.395,-0.38,
3959,-0.375,-0.39,
3960,-0.385,-0.38,
3961,-0.38,-0.385,
3962,-0.37,-0.38,
3963,-0.385,-0.375,
3964,-0.385,-0.37,
3965,-0.38,-0.335,
3966,-0.37,-0.315,
3967,-0.36,-0.31,
3968,-0.35,-0.3,
3969,-0.335,-0.31,
3970,-0.33,-0.285,
3971,-0.315,-0.26,
3972,-0.295,-0.225,
3973,-0.29,-0.225,
3974,-0.29,-0.22,
3975,-0.285,-0.23,
3976,-0.29,-0.215,
3977,-0.28,-0.205,
3978,-0.28,-0.195,
3979,-0.26,-0.185,
3980,-0.255,-0.195,
3981,-0.27,-0.19,
3982,-0.275,-0.18,
3983,-0.26,-0.17,
3984,-0.25,-0.15,
3985,-0.245,-0.16,
3986,-0.25,-0.175,
3987,-0.26,-0.185,
3988,-0.265,-0.175,
3989,-0.245,-0.17,
3990,-0.235,-0.16,
3991,-0.245,-0.165,
3992,-0.24,-0.165,
3993,-0.25,-0.18,
3994,-0.265,-0.175,
3995,-0.25,-0.17,
3996,-0.25,-0.165,
3997,-0.25,-0.17,
3998,-0.25,-0.18,
3999,-0.255,-0.185,
4000,-0.265,-0.19,
4001,-0.26,-0.17,
4002,-0.24,-0.155,
4003,-0.25,-0.16,
4004,-0.245,-0.165,
4005,-0.25,-0.175,
4006,-0.27,-0.18,
4007,-0.265,-0.17,
4008,-0.27,-0.165,
4009,-0.265,-0.165,
4010,-0.265,-0.175,
4011,-0.275,-0.185,
4012,-0.285,-0.19,
4013,-0.275,-0.19,
4014,-0.265,-0.175,
4015,-0.27,-0.19,
4016,-0.27,-0.18,
4017,-0.28,-0.195,
4018,-0.285,-0.195,
4019,-0.285,-0.18,
4020,-0.28,-0.18,
4021,-0.285,-0.19,
4022,-0.28,-0.205,
4023,-0.285,-0.215,
4024,-0.3,-0.215,
4025,-0.29,-0.21,
4026,-0.285,-0.19,
4027,-0.27,-0.185,
4028,-0.28,-0.2,
4029,-0.295,-0.205,
4030,-0.29,-0.225,
4031,-0.29,-0.205,
4032,-0.295,-0.2,
4033,-0.29,-0.205,
4034,-0.285,-0.205,
4035,-0.305,-0.215,
4036,-0.315,-0.215,
4037,-0.31,-0.2,
4038,-0.31,-0.2,
4039,-0.29,-0.21,
4040,-0.295,-0.21,
4041,-0.31,-0.23,
4042,-0.32,-0.215,
4043,-0.315,-0.22,
4044,-0.31,-0.205,
4045,-0.3,-0.205,
4046,-0.3,-0.22,
4047,-0.315,-0.235,
4048,-0.32,-0.225,
4049,-0.315,-0.22,
4050,-0.32,-0.21,
4051,-0.29,-0.215,
4052,-0.3,-0.22,
4053,-0.3,-0.23,
4054,-0.315,-0.22,
4055,-0.31,-0.22,
4056,-0.3,-0.215,
4057,-0.3,-0.21,
4058,-0.29,-0.235,
4059,-0.31,-0.225,
4060,-0.325,-0.22,
4061,-0.315,-0.22,
4062,-0.305,-0.2,
4063,-0.305,-0.22,
4064,-0.305,-0.215,
4065,-0.315,-0.235,
4066,-0.325,-0.23,
4067,-0.32,-0.225,
4068,-0.31,-0.21,
4069,-0.3,-0.215,
4070,-0.295,-0.22,
4071,-0.315,-0.225,
4072,-0.32,-0.215,
4073,-0.305,-0.21,
4074,-0.3,-0.2,
4075,-0.29,-0.21,
4076,-0.295,-0.22,
4077,-0.295,-0.225,
4078,-0.31,-0.225,
4079,-0.295,-0.225,
4080,-0.295,-0.21,
4081,-0.285,-0.205,
4082,-0.295,-0.21,
4083,-0.295,-0.23,
4084,-0.31,-0.225,
4085,-0.3,-0.215,
4086,-0.285,-0.21,
4087,-0.28,-0.21,
4088,-0.275,-0.225,
4089,-0.28,-0.225,
4090,-0.265,-0.225,
4091,-0.245,-0.205,
4092,-0.23,-0.2,
4093,-0.24,-0.21,
4094,-0.24,-0.22,
4095,-0.24,-0.21,
4096,-0.245,-0.215,
4097,-0.22,-0.19,
4098,-0.22,-0.19,
4099,-0.215,-0.185,
4100,-0.2,-0.185,
4101,-0.2,-0.185,
4102,-0.21,-0.2,
4103,-0.205,-0.185,
4104,-0.195,-0.17,
4105,-0.205,-0.17,
4106,-0.21,-0.155,
4107,-0.215,-0.16,
4108,-0.225,-0.16,
4109,-0.225,-0.175,
4110,-0.2,-0.165,
4111,-0.2,-0.16,
4112,-0.21,-0.16,
4113,-0.225,-0.165,
4114,-0.22,-0.17,
4115,-0.195,-0.165,
4116,-0.18,-0.16,
4117,-0.175,-0.175,
4118,-0.205,-0.195,
4119,-0.245,-0.2,
4120,-0.265,-0.205,
4121,-0.275,-0.195,
4122,-0.28,-0.195,
4123,-0.285,-0.205,
4124,-0.3,-0.2,
4125,-0.31,-0.22,
4126,-0.325,-0.225,
4127,-0.32,-0.22,
4128,-0.325,-0.21,
4129,-0.31,-0.215,
4130,-0.325,-0.22,
4131,-0.33,-0.23,
4132,-0.34,-0.24,
4133,-0.335,-0.215,
4134,-0.33,-0.215,
4135,-0.325,-0.225,
4136,-0.32,-0.235,
4137,-0.34,-0.24,
4138,-0.345,-0.25,
4139,-0.34,-0.23,
4140,-0.33,-0.205,
4141,-0.335,-0.225,
4142,-0.33,-0.23,
4143,-0.34,-0.24,
4144,-0.34,-0.25,
4145,-0.335,-0.23,
4146,-0.335,-0.215,
4147,-0.33,-0.23,
4148,-0.335,-0.255,
4149,-0.345,-0.28,
4150,-0.375,-0.305,
4151,-0.395,-0.315,
4152,-0.43,-0.325,
4153,-0.44,-0.33,
4154,-0.45,-0.35,
4155,-0.45,-0.375,
4156,-0.475,-0.415,
4157,-0.48,-0.415,
4158,-0.51,-0.375,
4159,-0.55,-0.32,
4160,-0.575,-0.235,
4161,-0.545,-0.125,
4162,-0.49,0.0,
4163,-0.375,0.115,
4164,-0.25,0.205,
4165,-0.12,0.315,
4166,0.06,0.42,
4167,0.285,0.525,
4168,0.525,0.61,
4169,0.74,0.615,
4170,0.86,0.47,N
4171,0.89,0.135,
4172,0.73,-0.165,
4173,0.425,-0.325,
4174,0.015,-0.305,
4175,-0.285,-0.27,
4176,-0.435,-0.26,
4177,-0.45,-0.26,
4178,-0.435,-0.25,
4179,-0.385,-0.27,
4180,-0.38,-0.275,
4181,-0.37,-0.26,
4182,-0.37,-0.26,
4183,-0.37,-0.275,
4184,-0.36,-0.27,
4185,-0.36,-0.27,
4186,-0.37,-0.27,
4187,-0.385,-0.265,
4188,-0.365,-0.26,
4189,-0.36,-0.27,
4190,-0.365,-0.27,
4191,-0.365,-0.28,
4192,-0.375,-0.285,
4193,-0.385,-0.265,
4194,-0.36,-0.255,
4195,-0.365,-0.26,
4196,-0.355,-0.27,
4197,-0.375,-0.275,
4198,-0.38,-0.285,
4199,-0.375,-0.27,
4200,-0.355,-0.265,
4201,-0.355,-0.265,
4202,-0.36,-0.26,
4203,-0.365,-0.275,
4204,-0.38,-0.27,
4205,-0.37,-0.265,
4206,-0.355,-0.255,
4207,-0.35,-0.26,
4208,-0.355,-0.255,
4209,-0.365,-0.275,
4210,-0.38,-0.265,
4211,-0.365,-0.26,
4212,-0.355,-0.255,
4213,-0.355,-0.255,
4214,-0.365,-0.26,
4215,-0.385,-0.265,
4216,-0.39,-0.28,
4217,-0.375,-0.26,
4218,-0.355,-0.24,
4219,-0.365,-0.25,
4220,-0.36,-0.265,
4221,-0.355,-0.27,
4222,-0.365,-0.28,
4223,-0.365,-0.265,
4224,-0.355,-0.25,
4225,-0.345,-0.255,
4226,-0.345,-0.26,
4227,-0.365,-0.27,
4228,-0.36,-0.28,
4229,-0.375,-0.275,
4230,-0.355,-0.26,
4231,-0.36,-0.27,
4232,-0.365,-0.285,
4233,-0.365,-0.28,
4234,-0.37,-0.28,
4235,-0.36,-0.275,
4236,-0.355,-0.28,
4237,-0.36,-0.275,
4238,-0.365,-0.27,
4239,-0.385,-0.295,
4240,-0.38,-0.305,
4241,-0.365,-0.295,
4242,-0.355,-0.28,
4243,-0.335,-0.3,
4244,-0.36,-0.31,
4245,-0.36,-0.31,
4246,-0.385,-0.315,
4247,-0.38,-0.315,
4248,-0.375,-0.31,
4249,-0.36,-0.315,
4250,-0.36,-0.33,
4251,-0.365,-0.35,
4252,-0.375,-0.35,
4253,-0.365,-0.355,
4254,-0.355,-0.335,
4255,-0.36,-0.345,
4256,-0.35,-0.355,
4257,-0.36,-0.37,
4258,-0.37,-0.375,
4259,-0.37,-0.385,
4260,-0.365,-0.38,
4261,-0.37,-0.39,
4262,-0.38,-0.39,
4263,-0.39,-0.405,
4264,-0.385,-0.41,
4265,-0.38,-0.395,
4266,-0.37,-0.395,
4267,-0.37,-0.395,
4268,-0.365,-0.4,
4269,-0.365,-0.41,
4270,-0.39,-0.405,
4271,-0.375,-0.385,
4272,-0.37,-0.375,
4273,-0.355,-0.365,
4274,-0.365,-0.365,
4275,-0.36,-0.365,
4276,-0.37,-0.355,
4277,-0.35,-0.325,
4278,-0.34,-0.295,
4279,-0.325,-0.295,
4280,-0.32,-0.265,
4281,-0.315,-0.28,
4282,-0.325,-0.275,
4283,-0.31,-0.245,
4284,-0.295,-0.23,
4285,-0.285,-0.215,
4286,-0.29,-0.21,
4287,-0.29,-0.225,
4288,-0.275,-0.215,
4289,-0.27,-0.21,
4290,-0.265,-0.195,
4291,-0.26,-0.19,
4292,-0.26,-0.215,
4293,-0.275,-0.195,
4294,-0.275,-0.21,
4295,-0.285,-0.18,
4296,-0.26,-0.18,
4297,-0.26,-0.19,
4298,-0.265,-0.195,
4299,-0.27,-0.2,
4300,-0.28,-0.2,
4301,-0.275,-0.19,
4302,-0.255,-0.17,
4303,-0.255,-0.18,
4304,-0.245,-0.195,
4305,-0.255,-0.195,
4306,-0.26,-0.21,
4307,-0.255,-0.2,
4308,-0.255,-0.195,
4309,-0.26,-0.185,
4310,-0.265,-0.19,
4311,-0.28,-0.215,
4312,-0.295,-0.21,
4313,-0.29,-0.21,
4314,-0.275,-0.2,
4315,-0.28,-0.205,
4316,-0.28,-0.215,
4317,-0.28,-0.215,
4318,-0.285,-0.225,
4319,-0.285,-0.215,
4320,-0.28,-0.195,
4321,-0.27,-0.205,
4322,-0.285,-0.22,
4323,-0.3,-0.24,
4324,-0.31,-0.24,
4325,-0.3,-0.22,
4326,-0.29,-0.21,
4327,-0.28,-0.215,
4328,-0.3,-0.215,
4329,-0.29,-0.22,
4330,-0.31,-0.235,
4331,-0.3,-0.225,
4332,-0.295,-0.22,
4333,-0.29,-0.225,
4334,-0.285,-0.23,
4335,-0.295,-0.235,
4336,-0.325,-0.245,
4337,-0.315,-0.225,
4338,-0.31,-0.22,
4339,-0.305,-0.23,
4340,-0.3,-0.245,
4341,-0.315,-0.26,
4342,-0.33,-0.26,
4343,-0.32,-0.25,
4344,-0.32,-0.23,
4345,-0.315,-0.24,
4346,-0.32,-0.245,
4347,-0.325,-0.25,
4348,-0.335,-0.25,
4349,-0.33,-0.24,
4350,-0.325,-0.235,
4351,-0.31,-0.245,
4352,-0.315,-0.24,
4353,-0.315,-0.255,
4354,-0.335,-0.255,
4355,-0.32,-0.25,
4356,-0.31,-0.25,
4357,-0.315,-0.25,
4358,-0.31,-0.26,
4359,-0.32,-0.26,
4360,-0.335,-0.25,
4361,-0.325,-0.245,
4362,-0.325,-0.23,
4363,-0.315,-0.235,
4364,-0.31,-0.24,
4365,-0.32,-0.24,
4366,-0.33,-0.25,
4367,-0.32,-0.24,
4368,-0.32,-0.24,
4369,-0.31,-0.26,
4370,-0.33,-0.255,
4371,-0.33,-0.27,
4372,-0.345,-0.27,
4373,-0.34,-0.255,
4374,-0.33,-0.255,
4375,-0.32,-0.24,
4376,-0.315,-0.245,
4377,-0.335,-0.24,
4378,-0.335,-0.24,
4379,-0.33,-0.245,
4380,-0.31,-0.235,
4381,-0.31,-0.235,
4382,-0.315,-0.245,
4383,-0.33,-0.27,
4384,-0.32,-0.26,
4385,-0.315,-0.25,
4386,-0.3,-0.25,
4387,-0.285,-0.255,
4388,-0.28,-0.25,
4389,-0.265,-0.27,
4390,-0.26,-0.27,
4391,-0.265,-0.25,
4392,-0.26,-0.23,
4393,-0.255,-0.235,
4394,-0.26,-0.24,
4395,-0.25,-0.235,
4396,-0.255,-0.235,
4397,-0.24,-0.23,
4398,-0.23,-0.225,
4399,-0.205,-0.215,
4400,-0.21,-0.235,
4401,-0.225,-0.225,
4402,-0.235,-0.22,
4403,-0.225,-0.205,
4404,-0.225,-0.205,
4405,-0.23,-0.205,
4406,-0.225,-0.205,
4407,-0.24,-0.21,
4408,-0.24,-0.225,
4409,-0.23,-0.21,
4410,-0.235,-0.195,
4411,-0.25,-0.2,
4412,-0.25,-0.215,
4413,-0.255,-0.235,
4414,-0.235,-0.23,
4415,-0.22,-0.225,
4416,-0.205,-0.225,
4417,-0.215,-0.245,
4418,-0.24,-0.25,
4419,-0.265,-0.26,
4420,-0.28,-0.265,
4421,-0.28,-0.23,
4422,-0.27,-0.235,
4423,-0.27,-0.24,
4424,-0.29,-0.25,
4425,-0.32,-0.28,
4426,-0.335,-0.27,
4427,-0.34,-0.265,
4428,-0.33,-0.255,
4429,-0.33,-0.265,
4430,-0.335,-0.275,
4431,-0.35,-0.28,
4432,-0.36,-0.29,
4433,-0.35,-0.275,
4434,-0.35,-0.265,
4435,-0.345,-0.27,
4436,-0.35,-0.27,
4437,-0.355,-0.28,
4438,-0.365,-0.28,
4439,-0.36,-0.27,
4440,-0.355,-0.265,
4441,-0.35,-0.28,
4442,-0.34,-0.285,
4443,-0.36,-0.295,
4444,-0.37,-0.295,
4445,-0.37,-0.28,
4446,-0.355,-0.265,
4447,-0.345,-0.28,
4448,-0.35,-0.3,
4449,-0.37,-0.325,
4450,-0.385,-0.355,
4451,-0.41,-0.36,
4452,-0.44,-0.355,
4453,-0.46,-0.385,
4454,-0.49,-0.4,
4455,-0.54,-0.355,
4456,-0.565,-0.27,
4457,-0.55,-0.17,
4458,-0.485,-0.075,
4459,-0.365,-0.01,
4460,-0.255,0.05,
4461,-0.125,0.135,
4462,0.09,0.255,
4463,0.36,0.36,
4464,0.6,0.39,
4465,0.75,0.275,
4466,0.795,0.04,N
4467,0.7,-0.225,
4468,0.44,-0.4,
4469,0.095,-0.41,
4470,-0.185,-0.36,
4471,-0.37,-0.345,
4472,-0.47,-0.34,
4473,-0.49,-0.345,
4474,-0.47,-0.345,
4475,-0.44,-0.33,
4476,-0.425,-0.305,
4477,-0.41,-0.315,
4478,-0.41,-0.315,
4479,-0.41,-0.325,
4480,-0.42,-0.335,
4481,-0.4,-0.33,
4482,-0.395,-0.31,
4483,-0.405,-0.315,
4484,-0.41,-0.32,
4485,-0.405,-0.32,
4486,-0.42,-0.32,
4487,-0.395,-0.32,
4488,-0.395,-0.31,
4489,-0.39,-0.325,
4490,-0.395,-0.33,
4491,-0.395,-0.345,
4492,-0.41,-0.34,
4493,-0.4,-0.32,
4494,-0.4,-0.31,
4495,-0.41,-0.31,
4496,-0.4,-0.32,
4497,-0.405,-0.325,
4498,-0.41,-0.325,
4499,-0.41,-0.315,
4500,-0.4,-0.31,
4501,-0.39,-0.31,
4502,-0.39,-0.315,
4503,-0.4,-0.33,
4504,-0.4,-0.32,
4505,-0.395,-0.315,
4506,-0.39,-0.29,
4507,-0.385,-0.305,
4508,-0.39,-0.305,
4509,-0.41,-0.32,
4510,-0.41,-0.32,
4511,-0.41,-0.325,
4512,-0.415,-0.32,
4513,-0.41,-0.315,
4514,-0.405,-0.32,
4515,-0.42,-0.325,
4516,-0.42,-0.33,
4517,-0.42,-0.315,
4518,-0.415,-0.31,
4519,-0.41,-0.315,
4520,-0.415,-0.33,
4521,-0.425,-0.34,
4522,-0.425,-0.335,
4523,-0.42,-0.315,
4524,-0.425,-0.305,
4525,-0.42,-0.32,
4526,-0.41,-0.325,
4527,-0.41,-0.32,
4528,-0.415,-0.325,
4529,-0.41,-0.33,
4530,-0.41,-0.32,
4531,-0.4,-0.31,
4532,-0.405,-0.325,
4533,-0.405,-0.325,
4534,-0.425,-0.33,
4535,-0.42,-0.325,
4536,-0.41,-0.33,
4537,-0.4,-0.33,
4538,-0.405,-0.335,
4539,-0.415,-0.335,
4540,-0.42,-0.345,
4541,-0.41,-0.335,
4542,-0.41,-0.34,
4543,-0.4,-0.345,
4544,-0.41,-0.35,
4545,-0.415,-0.36,
4546,-0.42,-0.38,
4547,-0.41,-0.365,
4548,-0.4,-0.36,
4549,-0.39,-0.37,
4550,-0.4,-0.38,
4551,-0.415,-0.405,
4552,-0.42,-0.425,
4553,-0.415,-0.42,
4554,-0.415,-0.405,
4555,-0.4,-0.41,
4556,-0.415,-0.425,
4557,-0.43,-0.44,
4558,-0.45,-0.445,
4559,-0.44,-0.44,
4560,-0.44,-0.43,
4561,-0.435,-0.43,
4562,-0.435,-0.44,
4563,-0.44,-0.45,
4564,-0.45,-0.465,
4565,-0.435,-0.44,
4566,-0.44,-0.435,
4567,-0.43,-0.445,
4568,-0.44,-0.465,
4569,-0.445,-0.45,
4570,-0.445,-0.445,
4571,-0.44,-0.42,
4572,-0.435,-0.4,
4573,-0.42,-0.385,
4574,-0.415,-0.38,
4575,-0.41,-0.38,
4576,-0.405,-0.375,
4577,-0.38,-0.365,
4578,-0.375,-0.345,
4579,-0.37,-0.34,
4580,-0.37,-0.34,
4581,-0.37,-0.325,
4582,-0.36,-0.305,
4583,-0.355,-0.28,
4584,-0.325,-0.275,
4585,-0.305,-0.29,
4586,-0.31,-0.305,
4587,-0.32,-0.31,
4588,-0.325,-0.305,
4589,-0.325,-0.29,
4590,-0.315,-0.28,
4591,-0.3,-0.28,
4592,-0.305,-0.27,
4593,-0.32,-0.29,
4594,-0.33,-0.285,
4595,-0.33,-0.29,
4596,-0.31,-0.275,
4597,-0.31,-0.29,
4598,-0.31,-0.295,
4599,-0.305,-0.29,
4600,-0.31,-0.3,
4601,-0.32,-0.28,
4602,-0.305,-0.27,
4603,-0.3,-0.28,
4604,-0.3,-0.285,
4605,-0.305,-0.3,
4606,-0.32,-0.29,
4607,-0.32,-0.285,
4608,-0.315,-0.275,
4609,-0.315,-0.285,
4610,-0.31,-0.3,
4611,-0.33,-0.305,
4612,-0.335,-0.31,
4613,-0.335,-0.295,
4614,-0.32,-0.295,
4615,-0.315,-0.29,
4616,-0.315,-0.295,
4617,-0.325,-0.305,
4618,-0.33,-0.31,
4619,-0.335,-0.305,
4620,-0.32,-0.295,
4621,-0.3,-0.295,
4622,-0.3,-0.3,
4623,-0.32,-0.3,
4624,-0.32,-0.31,
4625,-0.33,-0.32,
4626,-0.32,-0.3,
4627,-0.32,-0.325,
4628,-0.325,-0.325,
4629,-0.34,-0.325,
4630,-0.355,-0.335,
4631,-0.345,-0.33,
4632,-0.35,-0.31,
4633,-0.345,-0.32,
4634,-0.345,-0.325,
4635,-0.36,-0.335,
4636,-0.36,-0.34,
4637,-0.345,-0.325,
4638,-0.34,-0.315,
4639,-0.34,-0.33,
4640,-0.355,-0.33,
4641,-0.35,-0.335,
4642,-0.35,-0.34,
4643,-0.355,-0.335,
4644,-0.34,-0.315,
4645,-0.335,-0.33,
4646,-0.34,-0.345,
4647,-0.35,-0.34,
4648,-0.355,-0.34,
4649,-0.355,-0.33,
4650,-0.355,-0.325,
4651,-0.345,-0.33,
4652,-0.345,-0.34,
4653,-0.35,-0.35,
4654,-0.36,-0.355,
4655,-0.365,-0.335,
4656,-0.365,-0.32,
4657,-0.35,-0.325,
4658,-0.35,-0.33,
4659,-0.36,-0.33,
4660,-0.37,-0.355,
4661,-0.36,-0.34,
4662,-0.35,-0.32,
4663,-0.335,-0.335,
4664,-0.35,-0.335,
4665,-0.35,-0.33,
4666,-0.345,-0.35,
4667,-0.34,-0.335,
4668,-0.34,-0.335,
4669,-0.34,-0.34,
4670,-0.34,-0.34,
4671,-0.345,-0.35,
4672,-0.35,-0.345,
4673,-0.36,-0.325,
4674,-0.35,-0.32,
4675,-0.335,-0.325,
4676,-0.345,-0.345,
4677,-0.35,-0.35,
4678,-0.35,-0.35,
4679,-0.355,-0.345,
4680,-0.34,-0.33,
4681,-0.335,-0.315,
4682,-0.33,-0.33,
4683,-0.34,-0.34,
4684,-0.355,-0.345,
4685,-0.355,-0.34,
4686,-0.33,-0.32,
4687,-0.315,-0.33,
4688,-0.315,-0.34,
4689,-0.315,-0.35,
4690,-0.32,-0.335,
4691,-0.3,-0.325,
4692,-0.3,-0.31,
4693,-0.28,-0.305,
4694,-0.265,-0.32,
4695,-0.28,-0.315,
4696,-0.285,-0.32,
4697,-0.265,-0.31,
4698,-0.235,-0.29,
4699,-0.23,-0.295,
4700,-0.23,-0.305,
4701,-0.245,-0.305,
4702,-0.255,-0.31,
4703,-0.25,-0.295,
4704,-0.245,-0.28,
4705,-0.25,-0.28,
4706,-0.255,-0.285,
4707,-0.265,-0.29,
4708,-0.27,-0.295,
4709,-0.29,-0.29,
4710,-0.28,-0.285,
4711,-0.275,-0.295,
4712,-0.26,-0.3,
4713,-0.255,-0.315,
4714,-0.26,-0.315,
4715,-0.275,-0.305,
4716,-0.295,-0.295,
4717,-0.3,-0.305,
4718,-0.305,-0.31,
4719,-0.335,-0.345,
4720,-0.355,-0.335,
4721,-0.35,-0.34,
4722,-0.35,-0.335,
4723,-0.35,-0.33,
4724,-0.355,-0.33,
4725,-0.37,-0.345,
4726,-0.37,-0.345,
4727,-0.36,-0.34,
4728,-0.365,-0.335,
4729,-0.355,-0.33,
4730,-0.365,-0.335,
4731,-0.375,-0.335,
4732,-0.385,-0.33,
4733,-0.38,-0.325,
4734,-0.375,-0.31,
4735,-0.355,-0.325,
4736,-0.37,-0.325,
4737,-0.385,-0.33,
4738,-0.39,-0.335,
4739,-0.39,-0.335,
4740,-0.37,-0.315,
4741,-0.36,-0.32,
4742,-0.37,-0.33,
4743,-0.38,-0.325,
4744,-0.385,-0.335,
4745,-0.38,-0.325,
4746,-0.375,-0.33,
4747,-0.37,-0.35,
4748,-0.38,-0.375,
4749,-0.405,-0.395,
4750,-0.445,-0.425,
4751,-0.465,-0.425,
4752,-0.48,-0.43,
4753,-0.485,-0.425,
4754,-0.525,-0.365,
4755,-0.555,-0.27,
4756,-0.535,-0.165,
4757,-0.45,-0.065,
4758,-0.325,0.015,
4759,-0.185,0.08,
4760,-0.025,0.18,
4761,0.185,0.295,
4762,0.43,0.39,
4763,0.66,0.405,
4764,0.815,0.315,N
4765,0.85,0.025,
4766,0.75,-0.26,
4767,0.485,-0.44,
4768,0.11,-0.465,
4769,-0.21,-0.415,
4770,-0.39,-0.375,
4771,-0.46,-0.36,
4772,-0.485,-0.35,
4773,-0.47,-0.35,
4774,-0.45,-0.35,
4775,-0.425,-0.335,
4776,-0.415,-0.325,
4777,-0.405,-0.325,
4778,-0.415,-0.34,
4779,-0.415,-0.33,
4780,-0.42,-0.335,
4781,-0.4,-0.325,
4782,-0.395,-0.325,
4783,-0.385,-0.335,
4784,-0.395,-0.325,
4785,-0.4,-0.35,
4786,-0.42,-0.34,
4787,-0.41,-0.34,
4788,-0.4,-0.31,
4789,-0.4,-0.32,
4790,-0.405,-0.325,
4791,-0.405,-0.345,
4792,-0.435,-0.34,
4793,-0.42,-0.33,
4794,-0.41,-0.315,
4795,-0.405,-0.31,
4796,-0.415,-0.32,
4797,-0.43,-0.335,
4798,-0.44,-0.335,
4799,-0.435,-0.325,
4800,-0.415,-0.315,
4801,-0.42,-0.325,
4802,-0.43,-0.33,
4803,-0.415,-0.325,
4804,-0.43,-0.33,
4805,-0.425,-0.315,
4806,-0.42,-0.32,
4807,-0.42,-0.31,
4808,-0.415,-0.32,
4809,-0.425,-0.335,
4810,-0.425,-0.33,
4811,-0.42,-0.315,
4812,-0.41,-0.315,
4813,-0.41,-0.315,
4814,-0.41,-0.32,
4815,-0.42,-0.33,
4816,-0.43,-0.33,
4817,-0.42,-0.315,
4818,-0.415,-0.31,
4819,-0.395,-0.305,
4820,-0.405,-0.32,
4821,-0.415,-0.335,
4822,-0.43,-0.335,
4823,-0.42,-0.345,
4824,-0.42,-0.325,
4825,-0.415,-0.33,
4826,-0.42,-0.33,
4827,-0.425,-0.335,
4828,-0.44,-0.335,
4829,-0.43,-0.33,
4830,-0.425,-0.325,
4831,-0.415,-0.33,
4832,-0.42,-0.335,
4833,-0.425,-0.355,
4834,-0.44,-0.355,
4835,-0.43,-0.35,
4836,-0.43,-0.33,
4837,-0.425,-0.34,
4838,-0.42,-0.36,
4839,-0.415,-0.365,
4840,-0.425,-0.365,
4841,-0.43,-0.37,
4842,-0.425,-0.35,
4843,-0.415,-0.355,
4844,-0.405,-0.37,
4845,-0.405,-0.38,
4846,-0.425,-0.39,
4847,-0.415,-0.385,
4848,-0.42,-0.38,
4849,-0.42,-0.39,
4850,-0.42,-0.395,
4851,-0.435,-0.42,
4852,-0.435,-0.43,
4853,-0.44,-0.42,
4854,-0.42,-0.41,
4855,-0.43,-0.425,
4856,-0.45,-0.43,
4857,-0.455,-0.45,
4858,-0.465,-0.46,
4859,-0.465,-0.445,
4860,-0.465,-0.455,
4861,-0.465,-0.45,
4862,-0.465,-0.45,
4863,-0.47,-0.47,
4864,-0.49,-0.465,
4865,-0.485,-0.46,
4866,-0.46,-0.44,
4867,-0.455,-0.445,
4868,-0.46,-0.435,
4869,-0.455,-0.42,
4870,-0.455,-0.4,
4871,-0.44,-0.38,
4872,-0.425,-0.365,
4873,-0.415,-0.365,
4874,-0.4,-0.355,
4875,-0.405,-0.34,
4876,-0.4,-0.345,
4877,-0.385,-0.32,
4878,-0.365,-0.3,
4879,-0.365,-0.29,
4880,-0.36,-0.28,
4881,-0.37,-0.295,
4882,-0.375,-0.285,
4883,-0.355,-0.27,
4884,-0.34,-0.26,
4885,-0.33,-0.255,
4886,-0.33,-0.25,
4887,-0.33,-0.25,
4888,-0.34,-0.255,
4889,-0.335,-0.245,
4890,-0.32,-0.245,
4891,-0.305,-0.235,
4892,-0.315,-0.245,
4893,-0.32,-0.24,
4894,-0.32,-0.25,
4895,-0.32,-0.24,
4896,-0.315,-0.23,
4897,-0.31,-0.235,
4898,-0.31,-0.24,
4899,-0.315,-0.26,
4900,-0.33,-0.25,
4901,-0.32,-0.24,
4902,-0.32,-0.23,
4903,-0.31,-0.235,
4904,-0.32,-0.235,
4905,-0.33,-0.265,
4906,-0.34,-0.265,
4907,-0.33,-0.255,
4908,-0.325,-0.245,
4909,-0.325,-0.245,
4910,-0.32,-0.25,
4911,-0.34,-0.27,
4912,-0.35,-0.27,
4913,-0.34,-0.255,
4914,-0.32,-0.25,
4915,-0.315,-0.255,
4916,-0.325,-0.255,
4917,-0.34,-0.26,
4918,-0.345,-0.255,
4919,-0.345,-0.255,
4920,-0.34,-0.25,
4921,-0.33,-0.255,
4922,-0.335,-0.27,
4923,-0.345,-0.275,
4924,-0.36,-0.28,
4925,-0.355,-0.25,
4926,-0.34,-0.25,
4927,-0.33,-0.255,
4928,-0.335,-0.27,
4929,-0.345,-0.275,
4930,-0.365,-0.275,
4931,-0.37,-0.27,
4932,-0.35,-0.26,
4933,-0.34,-0.26,
4934,-0.335,-0.265,
4935,-0.36,-0.28,
4936,-0.355,-0.28,
4937,-0.34,-0.265,
4938,-0.335,-0.255,
4939,-0.335,-0.26,
4940,-0.32,-0.28,
4941,-0.335,-0.275,
4942,-0.355,-0.28,
4943,-0.35,-0.265,
4944,-0.345,-0.255,
4945,-0.34,-0.27,
4946,-0.335,-0.265,
4947,-0.35,-0.285,
4948,-0.37,-0.285,
4949,-0.36,-0.27,
4950,-0.355,-0.26,
4951,-0.35,-0.265,
4952,-0.345,-0.26,
4953,-0.365,-0.28,
4954,-0.36,-0.27,
4955,-0.36,-0.275,
4956,-0.35,-0.265,
4957,-0.345,-0.255,
4958,-0.355,-0.275,
4959,-0.355,-0.28,
4960,-0.365,-0.275,
4961,-0.36,-0.27,
4962,-0.345,-0.26,
4963,-0.345,-0.265,
4964,-0.35,-0.26,
4965,-0.355,-0.27,
4966,-0.36,-0.28,
4967,-0.355,-0.26,
4968,-0.35,-0.255,
4969,-0.335,-0.26,
4970,-0.335,-0.27,
4971,-0.355,-0.27,
4972,-0.345,-0.275,
4973,-0.34,-0.265,
4974,-0.33,-0.25,
4975,-0.34,-0.25,
4976,-0.345,-0.26,
4977,-0.35,-0.265,
4978,-0.355,-0.275,
4979,-0.35,-0.265,
4980,-0.335,-0.255,
4981,-0.33,-0.25,
4982,-0.33,-0.265,
4983,-0.33,-0.26,
4984,-0.33,-0.265,
4985,-0.305,-0.25,
4986,-0.285,-0.235,
4987,-0.275,-0.26,
4988,-0.28,-0.26,
4989,-0.285,-0.25,
4990,-0.29,-0.25,
4991,-0.275,-0.24,
4992,-0.26,-0.22,
4993,-0.245,-0.215,
4994,-0.24,-0.23,
4995,-0.24,-0.24,
4996,-0.24,-0.225,
4997,-0.235,-0.22,
4998,-0.225,-0.195,
4999,-0.22,-0.2,
5000,-0.23,-0.21,
5001,-0.24,-0.2,
5002,-0.255,-0.215,
5003,-0.255,-0.19,
5004,-0.24,-0.195,
5005,-0.24,-0.195,
5006,-0.25,-0.19,
5007,-0.27,-0.21,
5008,-0.27,-0.21,
5009,-0.24,-0.2,
5010,-0.23,-0.21,
5011,-0.225,-0.225,
5012,-0.265,-0.22,
5013,-0.295,-0.23,
5014,-0.305,-0.235,
5015,-0.325,-0.225,
5016,-0.315,-0.22,
5017,-0.325,-0.235,
5018,-0.33,-0.24,
5019,-0.345,-0.23,
5020,-0.36,-0.25,
5021,-0.365,-0.255,
5022,-0.355,-0.245,
5023,-0.345,-0.24,
5024,-0.34,-0.245,
5025,-0.335,-0.25,
5026,-0.36,-0.255,
5027,-0.355,-0.24,
5028,-0.345,-0.235,
5029,-0.335,-0.24,
5030,-0.355,-0.245,
5031,-0.35,-0.255,
5032,-0.375,-0.26,
5033,-0.375,-0.255,
5034,-0.365,-0.23,
5035,-0.365,-0.24,
5036,-0.35,-0.245,
5037,-0.37,-0.255,
5038,-0.38,-0.265,
5039,-0.365,-0.265,
5040,-0.37,-0.25,
5041,-0.355,-0.245,
5042,-0.37,-0.25,
5043,-0.38,-0.27,
5044,-0.385,-0.3,
5045,-0.385,-0.32,
5046,-0.4,-0.33,
5047,-0.43,-0.355,
5048,-0.465,-0.385,
5049,-0.485,-0.37,
5050,-0.52,-0.32,
5051,-0.555,-0.19,
5052,-0.525,-0.05,
5053,-0.435,0.075,
5054,-0.305,0.19,
5055,-0.155,0.305,
5056,0.01,0.435,
5057,0.26,0.57,
5058,0.535,0.66,
5059,0.76,0.645,
5060,0.89,0.455,N
5061,0.905,0.12,
5062,0.705,-0.175,
5063,0.36,-0.295,
5064,-0.03,-0.26,
5065,-0.32,-0.255,
5066,-0.455,-0.275,
5067,-0.475,-0.28,
5068,-0.44,-0.28,
5069,-0.395,-0.275,
5070,-0.38,-0.28,
5071,-0.38,-0.28,
5072,-0.385,-0.285,
5073,-0.395,-0.295,
5074,-0.4,-0.3,
5075,-0.405,-0.29,
5076,-0.395,-0.285,
5077,-0.41,-0.295,
5078,-0.39,-0.3,
5079,-0.395,-0.31,
5080,-0.405,-0.295,
5081,-0.405,-0.305,
5082,-0.395,-0.29,
5083,-0.385,-0.285,
5084,-0.385,-0.3,
5085,-0.405,-0.305,
5086,-0.405,-0.3,
5087,-0.4,-0.29,
5088,-0.385,-0.285,
5089,-0.38,-0.29,
5090,-0.385,-0.29,
5091,-0.405,-0.295,
5092,-0.41,-0.29,
5093,-0.4,-0.29,
5094,-0.395,-0.285,
5095,-0.385,-0.285,
5096,-0.395,-0.29,
5097,-0.41,-0.31,
5098,-0.405,-0.305,
5099,-0.405,-0.285,
5100,-0.395,-0.28,
5101,-0.39,-0.28,
5102,-0.395,-0.285,
5103,-0.395,-0.295,
5104,-0.405,-0.305,
5105,-0.41,-0.29,
5106,-0.4,-0.27,
5107,-0.385,-0.28,
5108,-0.395,-0.28,
5109,-0.4,-0.295,
5110,-0.395,-0.305,
5111,-0.385,-0.295,
5112,-0.385,-0.28,
5113,-0.375,-0.28,
5114,-0.375,-0.285,
5115,-0.38,-0.295,
5116,-0.395,-0.295,
5117,-0.385,-0.295,
5118,-0.39,-0.29,
5119,-0.385,-0.295,
5120,-0.38,-0.3,
5121,-0.39,-0.31,
5122,-0.4,-0.3,
5123,-0.4,-0.3,
5124,-0.39,-0.295,
5125,-0.365,-0.305,
5126,-0.375,-0.315,
5127,-0.385,-0.33,
5128,-0.4,-0.325,
5129,-0.4,-0.325,
5130,-0.39,-0.315,
5131,-0.38,-0.325,
5132,-0.375,-0.33,
5133,-0.385,-0.345,
5134,-0.395,-0.35,
5135,-0.38,-0.345,
5136,-0.37,-0.335,
5137,-0.365,-0.355,
5138,-0.365,-0.38,
5139,-0.375,-0.375,
5140,-0.385,-0.385,
5141,-0.375,-0.375,
5142,-0.375,-0.37,
5143,-0.365,-0.38,
5144,-0.37,-0.395,
5145,-0.375,-0.41,
5146,-0.4,-0.41,
5147,-0.395,-0.405,
5148,-0.405,-0.4,
5149,-0.37,-0.405,
5150,-0.385,-0.42,
5151,-0.4,-0.43,
5152,-0.41,-0.43,
5153,-0.4,-0.42,
5154,-0.395,-0.41,
5155,-0.375,-0.405,
5156,-0.38,-0.405,
5157,-0.385,-0.41,
5158,-0.405,-0.405,
5159,-0.385,-0.385,
5160,-0.375,-0.37,
5161,-0.37,-0.355,
5162,-0.365,-0.345,
5163,-0.365,-0.335,
5164,-0.35,-0.32,
5165,-0.355,-0.3,
5166,-0.32,-0.28,
5167,-0.31,-0.27,
5168,-0.31,-0.265,
5169,-0.305,-0.265,
5170,-0.31,-0.25,
5171,-0.29,-0.225,
5172,-0.28,-0.215,
5173,-0.28,-0.215,
5174,-0.27,-0.23,
5175,-0.28,-0.225,
5176,-0.285,-0.225,
5177,-0.28,-0.225,
5178,-0.285,-0.21,
5179,-0.265,-0.21,
5180,-0.27,-0.215,
5181,-0.275,-0.21,
5182,-0.29,-0.21,
5183,-0.29,-0.21,
5184,-0.275,-0.195,
5185,-0.275,-0.2,
5186,-0.27,-0.215,
5187,-0.275,-0.22,
5188,-0.29,-0.215,
5189,-0.285,-0.205,
5190,-0.285,-0.195,
5191,-0.26,-0.205,
5192,-0.26,-0.22,
5193,-0.275,-0.225,
5194,-0.285,-0.22,
5195,-0.275,-0.21,
5196,-0.265,-0.205,
5197,-0.27,-0.21,
5198,-0.28,-0.215,
5199,-0.29,-0.225,
5200,-0.295,-0.23,
5201,-0.3,-0.22,
5202,-0.28,-0.21,
5203,-0.28,-0.22,
5204,-0.275,-0.22,
5205,-0.29,-0.235,
5206,-0.3,-0.235,
5207,-0.305,-0.225,
5208,-0.285,-0.215,
5209,-0.285,-0.22,
5210,-0.285,-0.225,
5211,-0.295,-0.235,
5212,-0.3,-0.235,
5213,-0.3,-0.23,
5214,-0.295,-0.215,
5215,-0.28,-0.215,
5216,-0.295,-0.225,
5217,-0.29,-0.24,
5218,-0.305,-0.25,
5219,-0.305,-0.235,
5220,-0.3,-0.235,
5221,-0.285,-0.235,
5222,-0.285,-0.235,
5223,-0.31,-0.26,
5224,-0.315,-0.25,
5225,-0.305,-0.235,
5226,-0.305,-0.235,
5227,-0.295,-0.23,
5228,-0.3,-0.24,
5229,-0.32,-0.25,
5230,-0.335,-0.245,
5231,-0.32,-0.24,
5232,-0.32,-0.24,
5233,-0.31,-0.24,
5234,-0.315,-0.245,
5235,-0.31,-0.25,
5236,-0.33,-0.255,
5237,-0.32,-0.245,
5238,-0.31,-0.24,
5239,-0.305,-0.245,
5240,-0.305,-0.255,
5241,-0.315,-0.255,
5242,-0.315,-0.26,
5243,-0.315,-0.245,
5244,-0.305,-0.23,
5245,-0.305,-0.25,
5246,-0.3,-0.245,
5247,-0.31,-0.26,
5248,-0.31,-0.26,
5249,-0.31,-0.24,
5250,-0.31,-0.23,
5251,-0.295,-0.225,
5252,-0.3,-0.23,
5253,-0.325,-0.25,
5254,-0.325,-0.25,
5255,-0.33,-0.24,
5256,-0.32,-0.23,
5257,-0.31,-0.235,
5258,-0.305,-0.245,
5259,-0.315,-0.24,
5260,-0.33,-0.23,
5261,-0.32,-0.225,
5262,-0.31,-0.235,
5263,-0.305,-0.23,
5264,-0.3,-0.23,
5265,-0.295,-0.24,
5266,-0.32,-0.245,
5267,-0.31,-0.23,
5268,-0.3,-0.225,
5269,-0.275,-0.225,
5270,-0.27,-0.23,
5271,-0.26,-0.245,
5272,-0.25,-0.24,
5273,-0.235,-0.23,
5274,-0.23,-0.215,
5275,-0.225,-0.21,
5276,-0.23,-0.225,
5277,-0.23,-0.225,
5278,-0.24,-0.23,
5279,-0.23,-0.215,
5280,-0.225,-0.2,
5281,-0.205,-0.205,
5282,-0.205,-0.21,
5283,-0.2,-0.21,
5284,-0.21,-0.2,
5285,-0.195,-0.19,
5286,-0.2,-0.18,
5287,-0.19,-0.185,
5288,-0.2,-0.195,
5289,-0.21,-0.2,
5290,-0.225,-0.195,
5291,-0.225,-0.185,
5292,-0.22,-0.155,
5293,-0.22,-0.165,
5294,-0.22,-0.17,
5295,-0.23,-0.18,
5296,-0.25,-0.175,
5297,-0.245,-0.18,
5298,-0.23,-0.16,
5299,-0.205,-0.185,
5300,-0.185,-0.19,
5301,-0.195,-0.205,
5302,-0.225,-0.205,
5303,-0.25,-0.195,
5304,-0.255,-0.19,
5305,-0.265,-0.2,
5306,-0.275,-0.205,
5307,-0.305,-0.225,
5308,-0.32,-0.23,
5309,-0.325,-0.225,
5310,-0.325,-0.2,
5311,-0.33,-0.215,
5312,-0.33,-0.225,
5313,-0.325,-0.23,
5314,-0.335,-0.245,
5315,-0.34,-0.235,
5316,-0.335,-0.215,
5317,-0.32,-0.225,
5318,-0.335,-0.235,
5319,-0.345,-0.23,
5320,-0.355,-0.235,
5321,-0.35,-0.22,
5322,-0.355,-0.22,
5323,-0.35,-0.225,
5324,-0.345,-0.225,
5325,-0.34,-0.225,
5326,-0.355,-0.23,
5327,-0.35,-0.225,
5328,-0.34,-0.225,
5329,-0.34,-0.245,
5330,-0.34,-0.28,
5331,-0.355,-0.305,
5332,-0.4,-0.335,
5333,-0.435,-0.35,
5334,-0.455,-0.36,
5335,-0.47,-0.36,
5336,-0.5,-0.315,
5337,-0.54,-0.22,
5338,-0.545,-0.095,
5339,-0.465,0.025,
5340,-0.355,0.14,
5341,-0.21,0.245,
5342,-0.035,0.365,
5343,0.185,0.465,
5344,0.435,0.565,
5345,0.675,0.58,
5346,0.82,0.415,N
5347,0.825,0.075,
5348,0.64,-0.21,
5349,0.32,-0.33,
5350,-0.07,-0.3,
5351,-0.34,-0.27,
5352,-0.445,-0.26,
5353,-0.445,-0.26,
5354,-0.41,-0.255,
5355,-0.38,-0.265,
5356,-0.375,-0.265,
5357,-0.375,-0.255,
5358,-0.37,-0.25,
5359,-0.365,-0.26,
5360,-0.36,-0.265,
5361,-0.37,-0.26,
5362,-0.375,-0.275,
5363,-0.37,-0.255,
5364,-0.36,-0.255,
5365,-0.35,-0.26,
5366,-0.355,-0.275,
5367,-0.365,-0.275,
5368,-0.38,-0.275,
5369,-0.38,-0.26,
5370,-0.37,-0.26,
5371,-0.365,-0.255,
5372,-0.365,-0.275,
5373,-0.38,-0.285,
5374,-0.385,-0.28,
5375,-0.39,-0.265,
5376,-0.38,-0.25,
5377,-0.375,-0.25,
5378,-0.375,-0.26,
5379,-0.38,-0.275,
5380,-0.39,-0.285,
5381,-0.38,-0.275,
5382,-0.375,-0.25,
5383,-0.37,-0.255,
5384,-0.365,-0.255,
5385,-0.375,-0.27,
5386,-0.385,-0.27,
5387,-0.365,-0.255,
5388,-0.36,-0.25,
5389,-0.35,-0.25,
5390,-0.355,-0.255,
5391,-0.355,-0.255,
5392,-0.37,-0.25,
5393,-0.365,-0.255,
5394,-0.35,-0.235,
5395,-0.36,-0.24,
5396,-0.365,-0.255,
5397,-0.365,-0.255,
5398,-0.375,-0.265,
5399,-0.375,-0.26,
5400,-0.355,-0.25,
5401,-0.355,-0.25,
5402,-0.37,-0.26,
5403,-0.375,-0.275,
5404,-0.38,-0.28,
5405,-0.385,-0.275,
5406,-0.37,-0.255,
5407,-0.37,-0.265,
5408,-0.36,-0.285,
5409,-0.37,-0.28,
5410,-0.375,-0.295,
5411,-0.365,-0.295,
5412,-0.355,-0.275,
5413,-0.345,-0.285,
5414,-0.36,-0.295,
5415,-0.355,-0.305,
5416,-0.365,-0.305,
5417,-0.36,-0.305,
5418,-0.345,-0.305,
5419,-0.335,-0.31,
5420,-0.335,-0.315,
5421,-0.355,-0.33,
5422,-0.355,-0.33,
5423,-0.35,-0.315,
5424,-0.34,-0.315,
5425,-0.35,-0.32,
5426,-0.35,-0.34,
5427,-0.355,-0.365,
5428,-0.365,-0.36,
5429,-0.36,-0.36,
5430,-0.365,-0.345,
5431,-0.365,-0.365,
5432,-0.365,-0.365,
5433,-0.37,-0.385,
5434,-0.375,-0.385,
5435,-0.38,-0.39,
5436,-0.365,-0.375,
5437,-0.35,-0.365,
5438,-0.36,-0.385,
5439,-0.365,-0.4,
5440,-0.38,-0.395,
5441,-0.375,-0.39,
5442,-0.37,-0.38,
5443,-0.36,-0.385,
5444,-0.365,-0.4,
5445,-0.375,-0.405,
5446,-0.38,-0.4,
5447,-0.375,-0.395,
5448,-0.36,-0.37,
5449,-0.355,-0.37,
5450,-0.355,-0.365,
5451,-0.355,-0.37,
5452,-0.35,-0.35,
5453,-0.35,-0.335,
5454,-0.34,-0.32,
5455,-0.33,-0.32,
5456,-0.325,-0.31,
5457,-0.335,-0.305,
5458,-0.335,-0.295,
5459,-0.33,-0.285,
5460,-0.31,-0.27,
5461,-0.3,-0.255,
5462,-0.295,-0.265,
5463,-0.305,-0.27,
5464,-0.31,-0.25,
5465,-0.285,-0.24,
5466,-0.285,-0.225,
5467,-0.265,-0.23,
5468,-0.27,-0.225,
5469,-0.285,-0.235,
5470,-0.29,-0.245,
5471,-0.275,-0.25,
5472,-0.27,-0.235,
5473,-0.255,-0.235,
5474,-0.265,-0.24,
5475,-0.265,-0.255,
5476,-0.275,-0.25,
5477,-0.27,-0.235,
5478,-0.26,-0.235,
5479,-0.25,-0.24,
5480,-0.26,-0.245,
5481,-0.27,-0.255,
5482,-0.28,-0.255,
5483,-0.29,-0.26,
5484,-0.29,-0.245,
5485,-0.28,-0.245,
5486,-0.28,-0.255,
5487,-0.29,-0.265,
5488,-0.305,-0.27,
5489,-0.3,-0.26,
5490,-0.3,-0.24,
5491,-0.295,-0.24,
5492,-0.3,-0.255,
5493,-0.29,-0.28,
5494,-0.3,-0.265,
5495,-0.31,-0.265,
5496,-0.31,-0.26,
5497,-0.295,-0.26,
5498,-0.295,-0.255,
5499,-0.3,-0.26,
5500,-0.32,-0.26,
5501,-0.315,-0.255,
5502,-0.315,-0.25,
5503,-0.3,-0.26,
5504,-0.31,-0.265,
5505,-0.305,-0.28,
5506,-0.315,-0.29,
5507,-0.305,-0.275,
5508,-0.305,-0.255,
5509,-0.305,-0.26,
5510,-0.3,-0.275,
5511,-0.305,-0.29,
5512,-0.31,-0.29,
5513,-0.315,-0.285,
5514,-0.315,-0.28,
5515,-0.315,-0.275,
5516,-0.32,-0.28,
5517,-0.335,-0.285,
5518,-0.345,-0.29,
5519,-0.335,-0.285,
5520,-0.31,-0.275,
5521,-0.325,-0.285,
5522,-0.32,-0.285,
5523,-0.33,-0.285,
5524,-0.325,-0.295,
5525,-0.325,-0.285,
5526,-0.32,-0.28,
5527,-0.32,-0.275,
5528,-0.315,-0.29,
5529,-0.325,-0.3,
5530,-0.345,-0.295,
5531,-0.335,-0.285,
5532,-0.325,-0.28,
5533,-0.325,-0.28,
5534,-0.33,-0.295,
5535,-0.335,-0.295,
5536,-0.34,-0.3,
5537,-0.335,-0.29,
5538,-0.325,-0.27,
5539,-0.32,-0.275,
5540,-0.315,-0.28,
5541,-0.335,-0.29,
5542,-0.345,-0.295,
5543,-0.335,-0.285,
5544,-0.325,-0.285,
5545,-0.325,-0.285,
5546,-0.32,-0.29,
5547,-0.325,-0.3,
5548,-0.335,-0.295,
5549,-0.32,-0.295,
5550,-0.32,-0.275,
5551,-0.31,-0.28,
5552,-0.31,-0.28,
5553,-0.32,-0.3,
5554,-0.33,-0.3,
5555,-0.34,-0.285,
5556,-0.325,-0.275,
5557,-0.305,-0.27,
5558,-0.305,-0.295,
5559,-0.29,-0.295,
5560,-0.29,-0.305,
5561,-0.27,-0.29,
5562,-0.265,-0.27,
5563,-0.265,-0.28,
5564,-0.26,-0.29,
5565,-0.26,-0.29,
5566,-0.27,-0.275,
5567,-0.275,-0.255,
5568,-0.26,-0.25,
5569,-0.245,-0.26,
5570,-0.235,-0.27,
5571,-0.23,-0.28,
5572,-0.245,-0.27,
5573,-0.24,-0.265,
5574,-0.23,-0.245,
5575,-0.24,-0.245,
5576,-0.225,-0.255,
5577,-0.24,-0.25,
5578,-0.245,-0.24,
5579,-0.24,-0.235,
5580,-0.22,-0.23,
5581,-0.22,-0.23,
5582,-0.23,-0.25,
5583,-0.245,-0.265,
5584,-0.255,-0.275,
5585,-0.24,-0.275,
5586,-0.215,-0.26,
5587,-0.225,-0.255,
5588,-0.255,-0.265,
5589,-0.285,-0.29,
5590,-0.31,-0.295,
5591,-0.31,-0.295,
5592,-0.33,-0.28,
5593,-0.335,-0.27,
5594,-0.35,-0.29,
5595,-0.35,-0.3,
5596,-0.36,-0.295,
5597,-0.355,-0.3,
5598,-0.34,-0.3,
5599,-0.34,-0.3,
5600,-0.335,-0.305,
5601,-0.35,-0.295,
5602,-0.36,-0.295,
5603,-0.36,-0.295,
5604,-0.345,-0.3,
5605,-0.345,-0.3,
5606,-0.35,-0.3,
5607,-0.35,-0.3,
5608,-0.36,-0.315,
5609,-0.35,-0.305,
5610,-0.35,-0.28,
5611,-0.345,-0.29,
5612,-0.355,-0.295,
5613,-0.355,-0.325,
5614,-0.37,-0.34,
5615,-0.375,-0.36,
5616,-0.39,-0.365,
5617,-0.425,-0.38,
5618,-0.455,-0.415,
5619,-0.475,-0.45,
5620,-0.5,-0.42,
5621,-0.54,-0.345,
5622,-0.57,-0.245,
5623,-0.51,-0.16,
5624,-0.415,-0.09,
5625,-0.335,-0.06,
5626,-0.26,-0.005,
5627,-0.15,0.05,
5628,-0.005,0.165,
5629,0.205,0.265,
5630,0.47,0.38,
5631,0.68,0.46,
5632,0.825,0.495,
5633,0.925,0.485,N
5634,0.97,0.335,
5635,0.885,0.045,
5636,0.69,-0.245,
5637,0.415,-0.43,
5638,0.105,-0.48,
5639,-0.15,-0.43,
5640,-0.345,-0.4,
5641,-0.435,-0.38,
5642,-0.465,-0.365,
5643,-0.455,-0.355,
5644,-0.425,-0.365,
5645,-0.415,-0.345,
5646,-0.395,-0.345,
5647,-0.375,-0.34,
5648,-0.37,-0.345,
5649,-0.395,-0.365,
5650,-0.4,-0.36,
5651,-0.4,-0.36,
5652,-0.41,-0.34,
5653,-0.4,-0.35,
5654,-0.405,-0.345,
5655,-0.4,-0.365,
5656,-0.405,-0.36,
5657,-0.395,-0.36,
5658,-0.39,-0.345,
5659,-0.38,-0.345,
5660,-0.385,-0.36,
5661,-0.405,-0.36,
5662,-0.42,-0.37,
5663,-0.405,-0.355,
5664,-0.4,-0.345,
5665,-0.39,-0.345,
5666,-0.38,-0.355,
5667,-0.395,-0.36,
5668,-0.395,-0.36,
5669,-0.4,-0.355,
5670,-0.39,-0.35,
5671,-0.41,-0.34,
5672,-0.405,-0.345,
5673,-0.41,-0.36,
5674,-0.41,-0.345,
5675,-0.395,-0.355,
5676,-0.385,-0.335,
5677,-0.395,-0.35,
5678,-0.405,-0.365,
5679,-0.42,-0.36,
5680,-0.435,-0.37,
5681,-0.415,-0.36,
5682,-0.405,-0.345,
5683,-0.41,-0.34,
5684,-0.4,-0.355,
5685,-0.41,-0.375,
5686,-0.415,-0.38,
5687,-0.41,-0.365,
5688,-0.4,-0.36,
5689,-0.405,-0.355,
5690,-0.39,-0.355,
5691,-0.39,-0.35,
5692,-0.4,-0.365,
5693,-0.39,-0.355,
5694,-0.39,-0.36,
5695,-0.39,-0.365,
5696,-0.395,-0.385,
5697,-0.42,-0.39,
5698,-0.42,-0.38,
5699,-0.415,-0.37,
5700,-0.41,-0.365,
5701,-0.395,-0.385,
5702,-0.395,-0.385,
5703,-0.4,-0.42,
5704,-0.415,-0.405,
5705,-0.415,-0.39,
5706,-0.4,-0.39,
5707,-0.4,-0.385,
5708,-0.385,-0.395,
5709,-0.39,-0.405,
5710,-0.41,-0.4,
5711,-0.395,-0.395,
5712,-0.39,-0.395,
5713,-0.38,-0.405,
5714,-0.375,-0.425,
5715,-0.39,-0.44,
5716,-0.405,-0.455,
5717,-0.42,-0.455,
5718,-0.415,-0.445,
5719,-0.415,-0.465,
5720,-0.415,-0.465,
5721,-0.435,-0.48,
5722,-0.465,-0.485,
5723,-0.455,-0.485,
5724,-0.465,-0.485,
5725,-0.46,-0.49,
5726,-0.445,-0.5,
5727,-0.455,-0.51,
5728,-0.465,-0.525,
5729,-0.475,-0.51,
5730,-0.455,-0.495,
5731,-0.46,-0.5,
5732,-0.45,-0.515,
5733,-0.455,-0.51,
5734,-0.47,-0.49,
5735,-0.455,-0.475,
5736,-0.44,-0.45,
5737,-0.42,-0.45,
5738,-0.415,-0.45,
5739,-0.42,-0.44,
5740,-0.41,-0.43,
5741,-0.41,-0.405,
5742,-0.37,-0.39,
5743,-0.36,-0.39,
5744,-0.35,-0.38,
5745,-0.35,-0.38,
5746,-0.345,-0.37,
5747,-0.335,-0.355,
5748,-0.32,-0.34,
5749,-0.3,-0.34,
5750,-0.32,-0.33,
5751,-0.315,-0.34,
5752,-0.34,-0.33,
5753,-0.325,-0.325,
5754,-0.3,-0.32,
5755,-0.3,-0.32,
5756,-0.3,-0.32,
5757,-0.31,-0.325,
5758,-0.33,-0.335,
5759,-0.31,-0.315,
5760,-0.305,-0.315,
5761,-0.3,-0.305,
5762,-0.305,-0.325,
5763,-0.315,-0.34,
5764,-0.33,-0.345,
5765,-0.31,-0.325,
5766,-0.305,-0.32,
5767,-0.31,-0.32,
5768,-0.305,-0.325,
5769,-0.31,-0.34,
5770,-0.31,-0.345,
5771,-0.31,-0.33,
5772,-0.3,-0.31,
5773,-0.305,-0.315,
5774,-0.31,-0.32,
5775,-0.31,-0.345,
5776,-0.32,-0.345,
5777,-0.315,-0.325,
5778,-0.33,-0.34,
5779,-0.315,-0.335,
5780,-0.32,-0.345,
5781,-0.34,-0.34,
5782,-0.34,-0.35,
5783,-0.335,-0.345,
5784,-0.33,-0.335,
5785,-0.32,-0.345,
5786,-0.32,-0.345,
5787,-0.325,-0.355,
5788,-0.35,-0.355,
5789,-0.34,-0.345,
5790,-0.335,-0.335,
5791,-0.335,-0.345,
5792,-0.345,-0.345,
5793,-0.35,-0.355,
5794,-0.36,-0.35,
5795,-0.36,-0.355,
5796,-0.345,-0.34,
5797,-0.335,-0.355,
5798,-0.335,-0.36,
5799,-0.335,-0.355,
5800,-0.345,-0.34,
5801,-0.335,-0.345,
5802,-0.335,-0.345,
5803,-0.33,-0.345,
5804,-0.335,-0.355,
5805,-0.335,-0.34,
5806,-0.35,-0.37,
5807,-0.345,-0.37,
5808,-0.355,-0.35,
5809,-0.345,-0.35,
5810,-0.345,-0.35,
5811,-0.355,-0.36,
5812,-0.365,-0.37,
5813,-0.36,-0.37,
5814,-0.355,-0.36,
5815,-0.345,-0.36,
5816,-0.345,-0.355,
5817,-0.345,-0.36,
5818,-0.36,-0.36,
5819,-0.345,-0.35,
5820,-0.34,-0.345,
5821,-0.335,-0.35,
5822,-0.34,-0.355,
5823,-0.345,-0.365,
5824,-0.37,-0.36,
5825,-0.37,-0.35,
5826,-0.36,-0.33,
5827,-0.34,-0.335,
5828,-0.35,-0.34,
5829,-0.365,-0.35,
5830,-0.355,-0.36,
5831,-0.35,-0.34,
5832,-0.34,-0.34,
5833,-0.34,-0.335,
5834,-0.355,-0.34,
5835,-0.355,-0.35,
5836,-0.35,-0.35,
5837,-0.35,-0.34,
5838,-0.335,-0.33,
5839,-0.34,-0.33,
5840,-0.34,-0.34,
5841,-0.33,-0.345,
5842,-0.35,-0.345,
5843,-0.315,-0.345,
5844,-0.3,-0.335,
5845,-0.29,-0.32,
5846,-0.275,-0.335,
5847,-0.28,-0.34,
5848,-0.285,-0.345,
5849,-0.275,-0.325,
5850,-0.27,-0.3,
5851,-0.255,-0.315,
5852,-0.24,-0.315,
5853,-0.25,-0.305,
5854,-0.255,-0.3,
5855,-0.24,-0.28,
5856,-0.225,-0.27,
5857,-0.225,-0.29,
5858,-0.24,-0.29,
5859,-0.255,-0.295,
5860,-0.26,-0.29,
5861,-0.275,-0.275,
5862,-0.26,-0.255,
5863,-0.245,-0.265,
5864,-0.255,-0.275,
5865,-0.265,-0.28,
5866,-0.28,-0.285,
5867,-0.27,-0.28,
5868,-0.25,-0.27,
5869,-0.235,-0.285,
5870,-0.23,-0.305,
5871,-0.245,-0.305,
5872,-0.27,-0.305,
5873,-0.28,-0.295,
5874,-0.28,-0.295,
5875,-0.29,-0.295,
5876,-0.315,-0.315,
5877,-0.335,-0.325,
5878,-0.355,-0.325,
5879,-0.355,-0.31,
5880,-0.355,-0.305,
5881,-0.36,-0.3,
5882,-0.36,-0.31,
5883,-0.375,-0.325,
5884,-0.38,-0.325,
5885,-0.36,-0.325,
5886,-0.355,-0.305,
5887,-0.35,-0.305,
5888,-0.345,-0.325,
5889,-0.37,-0.32,
5890,-0.37,-0.325,
5891,-0.355,-0.31,
5892,-0.355,-0.31,
5893,-0.35,-0.315,
5894,-0.345,-0.32,
5895,-0.355,-0.325,
5896,-0.355,-0.32,
5897,-0.36,-0.315,
5898,-0.355,-0.305,
5899,-0.355,-0.3,
5900,-0.355,-0.325,
5901,-0.36,-0.335,
5902,-0.375,-0.35,
5903,-0.37,-0.355,
5904,-0.39,-0.38,
5905,-0.425,-0.415,
5906,-0.465,-0.43,
5907,-0.49,-0.455,
5908,-0.525,-0.41,
5909,-0.56,-0.305,
5910,-0.56,-0.16,
5911,-0.495,-0.045,
5912,-0.36,0.035,
5913,-0.22,0.12,
5914,-0.045,0.245,
5915,0.19,0.385,
5916,0.475,0.495,
5917,0.725,0.475,
5918,0.895,0.295,N
5919,0.895,-0.04,
5920,0.71,-0.35,
5921,0.35,-0.44,
5922,-0.055,-0.415,
5923,-0.35,-0.38,
5924,-0.48,-0.36,
5925,-0.49,-0.365,
5926,-0.465,-0.355,
5927,-0.415,-0.34,
5928,-0.405,-0.34,
5929,-0.395,-0.335,
5930,-0.405,-0.35,
5931,-0.42,-0.37,
5932,-0.395,-0.36,
5933,-0.415,-0.355,
5934,-0.4,-0.355,
5935,-0.39,-0.35,
5936,-0.385,-0.35,
5937,-0.395,-0.355,
5938,-0.405,-0.35,
5939,-0.395,-0.35,
5940,-0.4,-0.34,
5941,-0.39,-0.345,
5942,-0.39,-0.345,
5943,-0.4,-0.35,
5944,-0.415,-0.345,
5945,-0.405,-0.335,
5946,-0.39,-0.335,
5947,-0.38,-0.33,
5948,-0.38,-0.345,
5949,-0.405,-0.345,
5950,-0.39,-0.34,
5951,-0.4,-0.335,
5952,-0.39,-0.32,
5953,-0.38,-0.335,
5954,-0.38,-0.33,
5955,-0.405,-0.34,
5956,-0.4,-0.34,
5957,-0.41,-0.335,
5958,-0.4,-0.325,
5959,-0.395,-0.325,
5960,-0.4,-0.34,
5961,-0.4,-0.345,
5962,-0.405,-0.345,
5963,-0.39,-0.32,
5964,-0.38,-0.32,
5965,-0.385,-0.33,
5966,-0.385,-0.345,
5967,-0.39,-0.335,
5968,-0.405,-0.34,
5969,-0.4,-0.33,
5970,-0.4,-0.325,
5971,-0.39,-0.33,
5972,-0.39,-0.34,
5973,-0.41,-0.345,
5974,-0.41,-0.35,
5975,-0.405,-0.335,
5976,-0.4,-0.325,
5977,-0.41,-0.34,
5978,-0.405,-0.335,
5979,-0.41,-0.355,
5980,-0.415,-0.36,
5981,-0.41,-0.355,
5982,-0.405,-0.35,
5983,-0.395,-0.345,
5984,-0.405,-0.355,
5985,-0.4,-0.375,
5986,-0.4,-0.365,
5987,-0.395,-0.375,
5988,-0.405,-0.375,
5989,-0.38,-0.365,
5990,-0.385,-0.375,
5991,-0.39,-0.385,
5992,-0.41,-0.39,
5993,-0.395,-0.38,
5994,-0.39,-0.37,
5995,-0.38,-0.38,
5996,-0.385,-0.39,
5997,-0.405,-0.405,
5998,-0.405,-0.425,
5999,-0.405,-0.42,
6000,-0.4,-0.425,
6001,-0.41,-0.425,
6002,-0.41,-0.435,
6003,-0.415,-0.445,
6004,-0.435,-0.45,
6005,-0.43,-0.46,
6006,-0.415,-0.455,
6007,-0.42,-0.47,
6008,-0.42,-0.475,
6009,-0.44,-0.49,
6010,-0.44,-0.49,
6011,-0.435,-0.475,
6012,-0.435,-0.465,
6013,-0.435,-0.47,
6014,-0.43,-0.48,
6015,-0.445,-0.485,
6016,-0.445,-0.47,
6017,-0.42,-0.465,
6018,-0.425,-0.43,
6019,-0.41,-0.43,
6020,-0.405,-0.42,
6021,-0.4,-0.42,
6022,-0.41,-0.39,
6023,-0.38,-0.375,
6024,-0.37,-0.365,
6025,-0.35,-0.35,
6026,-0.34,-0.34,
6027,-0.355,-0.325,
6028,-0.345,-0.325,
6029,-0.34,-0.31,
6030,-0.315,-0.29,
6031,-0.32,-0.285,
6032,-0.3,-0.29,
6033,-0.3,-0.29,
6034,-0.315,-0.285,
6035,-0.305,-0.27,
6036,-0.3,-0.245,
6037,-0.28,-0.265,
6038,-0.29,-0.265,
6039,-0.29,-0.28,
6040,-0.3,-0.29,
6041,-0.295,-0.27,
6042,-0.295,-0.255,
6043,-0.28,-0.27,
6044,-0.285,-0.265,
6045,-0.29,-0.275,
6046,-0.295,-0.28,
6047,-0.285,-0.275,
6048,-0.28,-0.265,
6049,-0.275,-0.27,
6050,-0.265,-0.28,
6051,-0.28,-0.28,
6052,-0.295,-0.285,
6053,-0.28,-0.275,
6054,-0.28,-0.265,
6055,-0.275,-0.27,
6056,-0.29,-0.27,
6057,-0.295,-0.285,
6058,-0.31,-0.29,
6059,-0.29,-0.27,
6060,-0.29,-0.26,
6061,-0.275,-0.265,
6062,-0.27,-0.28,
6063,-0.295,-0.285,
6064,-0.315,-0.28,
6065,-0.31,-0.28,
6066,-0.3,-0.27,
6067,-0.295,-0.28,
6068,-0.29,-0.28,
6069,-0.3,-0.285,
6070,-0.315,-0.29,
6071,-0.305,-0.28,
6072,-0.3,-0.275,
6073,-0.29,-0.29,
6074,-0.31,-0.295,
6075,-0.315,-0.305,
6076,-0.33,-0.295,
6077,-0.31,-0.285,
6078,-0.305,-0.28,
6079,-0.295,-0.29,
6080,-0.295,-0.3,
6081,-0.305,-0.31,
6082,-0.325,-0.31,
6083,-0.315,-0.305,
6084,-0.315,-0.285,
6085,-0.31,-0.29,
6086,-0.3,-0.295,
6087,-0.315,-0.305,
6088,-0.335,-0.305,
6089,-0.325,-0.3,
6090,-0.325,-0.295,
6091,-0.315,-0.3,
6092,-0.31,-0.29,
6093,-0.32,-0.305,
6094,-0.335,-0.3,
6095,-0.325,-0.285,
6096,-0.31,-0.27,
6097,-0.305,-0.275,
6098,-0.305,-0.29,
6099,-0.32,-0.295,
6100,-0.325,-0.3,
6101,-0.315,-0.295,
6102,-0.31,-0.285,
6103,-0.3,-0.285,
6104,-0.315,-0.285,
6105,-0.325,-0.29,
6106,-0.32,-0.285,
6107,-0.32,-0.28,
6108,-0.32,-0.27,
6109,-0.31,-0.29,
6110,-0.31,-0.29,
6111,-0.31,-0.295,
6112,-0.315,-0.28,
6113,-0.305,-0.285,
6114,-0.285,-0.27,
6115,-0.295,-0.275,
6116,-0.305,-0.285,
6117,-0.31,-0.29,
6118,-0.315,-0.285,
6119,-0.3,-0.28,
6120,-0.315,-0.255,
6121,-0.305,-0.265,
6122,-0.305,-0.265,
6123,-0.325,-0.28,
6124,-0.325,-0.285,
6125,-0.315,-0.28,
6126,-0.3,-0.27,
6127,-0.295,-0.25,
6128,-0.31,-0.27,
6129,-0.315,-0.265,
6130,-0.32,-0.28,
6131,-0.315,-0.275,
6132,-0.31,-0.265,
6133,-0.295,-0.27,
6134,-0.285,-0.28,
6135,-0.27,-0.28,
6136,-0.25,-0.28,
6137,-0.245,-0.255,
6138,-0.23,-0.26,
6139,-0.22,-0.25,
6140,-0.225,-0.255,
6141,-0.235,-0.26,
6142,-0.23,-0.255,
6143,-0.22,-0.235,
6144,-0.205,-0.215,
6145,-0.19,-0.225,
6146,-0.19,-0.235,
6147,-0.19,-0.235,
6148,-0.205,-0.24,
6149,-0.205,-0.23,
6150,-0.205,-0.21,
6151,-0.21,-0.205,
6152,-0.215,-0.205,
6153,-0.225,-0.2,
6154,-0.23,-0.2,
6155,-0.225,-0.2,
6156,-0.22,-0.19,
6157,-0.22,-0.19,
6158,-0.24,-0.205,
6159,-0.24,-0.21,
6160,-0.23,-0.205,
6161,-0.205,-0.205,
6162,-0.195,-0.2,
6163,-0.195,-0.21,
6164,-0.22,-0.225,
6165,-0.245,-0.235,
6166,-0.275,-0.235,
6167,-0.26,-0.23,
6168,-0.275,-0.215,
6169,-0.285,-0.225,
6170,-0.3,-0.235,
6171,-0.3,-0.235,
6172,-0.31,-0.245,
6173,-0.31,-0.24,
6174,-0.32,-0.23,
6175,-0.32,-0.24,
6176,-0.325,-0.245,
6177,-0.335,-0.255,
6178,-0.345,-0.26,
6179,-0.335,-0.255,
6180,-0.335,-0.23,
6181,-0.33,-0.245,
6182,-0.335,-0.255,
6183,-0.345,-0.255,
6184,-0.36,-0.255,
6185,-0.345,-0.245,
6186,-0.335,-0.235,
6187,-0.345,-0.245,
6188,-0.345,-0.25,
6189,-0.355,-0.26,
6190,-0.36,-0.26,
6191,-0.355,-0.25,
6192,-0.34,-0.24,
6193,-0.34,-0.25,
6194,-0.35,-0.265,
6195,-0.35,-0.275,
6196,-0.355,-0.275,
6197,-0.355,-0.295,
6198,-0.355,-0.31,
6199,-0.37,-0.34,
6200,-0.425,-0.375,
6201,-0.465,-0.41,
6202,-0.48,-0.42,
6203,-0.5,-0.365,
6204,-0.53,-0.235,
6205,-0.535,-0.115,
6206,-0.485,0.015,
6207,-0.395,0.115,
6208,-0.255,0.235,
6209,-0.095,0.37,
6210,0.095,0.5,
6211,0.35,0.615,
6212,0.63,0.705,
6213,0.845,0.71,
6214,0.955,0.51,N
6215,0.975,0.16,
6216,0.825,-0.125,
6217,0.48,-0.285,
6218,0.055,-0.295,
6219,-0.27,-0.295,
6220,-0.455,-0.305,
6221,-0.485,-0.29,
6222,-0.44,-0.28,
6223,-0.405,-0.275,
6224,-0.375,-0.27,
6225,-0.375,-0.29,
6226,-0.39,-0.29,
6227,-0.38,-0.29,
6228,-0.36,-0.28,
6229,-0.355,-0.285,
6230,-0.345,-0.295,
6231,-0.365,-0.295,
6232,-0.375,-0.305,
6233,-0.37,-0.3,
6234,-0.37,-0.3,
6235,-0.355,-0.29,
6236,-0.37,-0.295,
6237,-0.375,-0.305,
6238,-0.38,-0.31,
6239,-0.385,-0.3,
6240,-0.38,-0.29,
6241,-0.38,-0.29,
6242,-0.38,-0.295,
6243,-0.385,-0.31,
6244,-0.395,-0.3,
6245,-0.395,-0.295,
6246,-0.39,-0.28,
6247,-0.385,-0.285,
6248,-0.38,-0.295,
6249,-0.38,-0.305,
6250,-0.395,-0.31,
6251,-0.39,-0.29,
6252,-0.38,-0.285,
6253,-0.37,-0.29,
6254,-0.375,-0.29,
6255,-0.385,-0.295,
6256,-0.38,-0.3,
6257,-0.375,-0.29,
6258,-0.365,-0.28,
6259,-0.36,-0.285,
6260,-0.365,-0.29,
6261,-0.365,-0.3,
6262,-0.385,-0.305,
6263,-0.37,-0.295,
6264,-0.365,-0.28,
6265,-0.355,-0.3,
6266,-0.385,-0.295,
6267,-0.395,-0.305,
6268,-0.395,-0.305,
6269,-0.385,-0.29,
6270,-0.37,-0.275,
6271,-0.38,-0.29,
6272,-0.37,-0.3,
6273,-0.375,-0.305,
6274,-0.39,-0.31,
6275,-0.385,-0.295,
6276,-0.38,-0.295,
6277,-0.37,-0.3,
6278,-0.37,-0.305,
6279,-0.385,-0.315,
6280,-0.385,-0.315,
6281,-0.38,-0.32,
6282,-0.385,-0.315,
6283,-0.37,-0.33,
6284,-0.375,-0.32,
6285,-0.375,-0.335,
6286,-0.38,-0.34,
6287,-0.38,-0.33,
6288,-0.355,-0.31,
6289,-0.36,-0.325,
6290,-0.365,-0.33,
6291,-0.37,-0.345,
6292,-0.38,-0.35,
6293,-0.37,-0.355,
6294,-0.375,-0.345,
6295,-0.36,-0.355,
6296,-0.37,-0.36,
6297,-0.38,-0.375,
6298,-0.385,-0.39,
6299,-0.375,-0.37,
6300,-0.375,-0.38,
6301,-0.37,-0.39,
6302,-0.37,-0.4,
6303,-0.385,-0.41,
6304,-0.4,-0.41,
6305,-0.395,-0.405,
6306,-0.385,-0.405,
6307,-0.395,-0.43,
6308,-0.38,-0.44,
6309,-0.4,-0.445,
6310,-0.4,-0.465,
6311,-0.4,-0.455,
6312,-0.39,-0.445,
6313,-0.39,-0.455,
6314,-0.385,-0.455,
6315,-0.4,-0.465,
6316,-0.4,-0.47,
6317,-0.385,-0.46,
6318,-0.38,-0.45,
6319,-0.38,-0.44,
6320,-0.385,-0.445,
6321,-0.385,-0.44,
6322,-0.405,-0.43,
6323,-0.395,-0.405,
6324,-0.38,-0.395,
6325,-0.37,-0.385,
6326,-0.37,-0.37,
6327,-0.38,-0.375,
6328,-0.365,-0.355,
6329,-0.355,-0.335,
6330,-0.335,-0.305,
6331,-0.325,-0.3,
6332,-0.32,-0.305,
6333,-0.32,-0.305,
6334,-0.33,-0.29,
6335,-0.315,-0.28,
6336,-0.3,-0.27,
6337,-0.295,-0.265,
6338,-0.285,-0.265,
6339,-0.295,-0.26,
6340,-0.29,-0.265,
6341,-0.285,-0.25,
6342,-0.27,-0.245,
6343,-0.26,-0.235,
6344,-0.265,-0.24,
6345,-0.275,-0.27,
6346,-0.28,-0.26,
6347,-0.275,-0.245,
6348,-0.27,-0.245,
6349,-0.27,-0.24,
6350,-0.26,-0.25,
6351,-0.27,-0.255,
6352,-0.28,-0.26,
6353,-0.285,-0.25,
6354,-0.275,-0.24,
6355,-0.265,-0.25,
6356,-0.27,-0.255,
6357,-0.285,-0.255,
6358,-0.285,-0.26,
6359,-0.285,-0.245,
6360,-0.275,-0.245,
6361,-0.28,-0.25,
6362,-0.275,-0.265,
6363,-0.285,-0.265,
6364,-0.295,-0.265,
6365,-0.295,-0.27,
6366,-0.285,-0.245,
6367,-0.28,-0.245,
6368,-0.27,-0.25,
6369,-0.285,-0.26,
6370,-0.275,-0.265,
6371,-0.29,-0.255,
6372,-0.285,-0.26,
6373,-0.28,-0.26,
6374,-0.29,-0.265,
6375,-0.3,-0.265,
6376,-0.31,-0.26,
6377,-0.31,-0.27,
6378,-0.31,-0.255,
6379,-0.3,-0.26,
6380,-0.3,-0.275,
6381,-0.315,-0.27,
6382,-0.325,-0.275,
6383,-0.315,-0.255,
6384,-0.305,-0.255,
6385,-0.31,-0.265,
6386,-0.31,-0.27,
6387,-0.315,-0.285,
6388,-0.33,-0.275,
6389,-0.325,-0.265,
6390,-0.32,-0.265,
6391,-0.32,-0.27,
6392,-0.315,-0.27,
6393,-0.325,-0.27,
6394,-0.33,-0.265,
6395,-0.335,-0.27,
6396,-0.325,-0.265,
6397,-0.32,-0.27,
6398,-0.32,-0.275,
6399,-0.315,-0.28,
6400,-0.32,-0.295,
6401,-0.31,-0.29,
6402,-0.31,-0.275,
6403,-0.3,-0.265,
6404,-0.305,-0.27,
6405,-0.32,-0.285,
6406,-0.34,-0.275,
6407,-0.335,-0.275,
6408,-0.33,-0.265,
6409,-0.32,-0.27,
6410,-0.33,-0.28,
6411,-0.33,-0.28,
6412,-0.335,-0.28,
6413,-0.34,-0.265,
6414,-0.335,-0.255,
6415,-0.325,-0.27,
6416,-0.34,-0.275,
6417,-0.345,-0.275,
6418,-0.34,-0.28,
6419,-0.34,-0.26,
6420,-0.325,-0.255,
6421,-0.34,-0.26,
6422,-0.335,-0.255,
6423,-0.34,-0.275,
6424,-0.35,-0.275,
6425,-0.34,-0.26,
6426,-0.33,-0.255,
6427,-0.33,-0.265,
6428,-0.325,-0.26,
6429,-0.335,-0.27,
6430,-0.34,-0.265,
6431,-0.335,-0.255,
6432,-0.315,-0.25,
6433,-0.315,-0.26,
